ecg_amplitude
0.006913
-0.002078
0.002500
0.020462
0.023400
0.027045
0.023867
0.001526
-0.028981
0.017200
-0.044696
0.005602
0.025191
-0.032748
-0.005349
0.035278
-0.008662
-0.003353
-0.021720
0.021085
-0.025462
-0.002619
-0.009624
-0.018125
-0.051043
0.021964
0.013737
-0.003809
0.025639
-0.001085
0.028371
0.010171
-0.035916
0.003051
0.018951
-0.015718
-0.009269
-0.003001
0.021879
-0.003436
0.012524
-0.002649
0.003786
0.011919
-0.025036
0.006823
0.004382
-0.010772
-0.016696
0.011802
0.034882
-0.008815
0.015215
-0.026457
-0.001307
0.002374
0.020150
-0.013080
-0.016959
0.009800
0.005156
-0.005605
0.036221
-0.057156
-0.012450
-0.018667
0.010372
0.015376
0.001349
-0.028500
0.044337
-0.021612
0.002985
0.014321
0.007943
0.022526
-0.006297
-0.016619
0.000547
0.005069
0.022541
0.028414
0.032752
0.002593
0.009364
-0.003230
0.014045
0.009985
0.021863
0.044975
0.045032
0.029595
-0.007447
-0.025309
0.018384
-0.014617
-0.004708
0.008126
0.037339
0.037355
-0.000563
0.006673
-0.008776
0.026582
-0.001119
-0.000607
-0.025675
0.013449
0.010640
-0.011880
0.005175
-0.011718
-0.008324
0.020281
0.025099
-0.020020
0.012613
-0.005072
0.020741
0.004276
0.012103
0.001584
-0.017388
-0.005228
0.013775
0.027171
0.024216
0.000421
0.011719
-0.019253
0.030433
0.001433
0.004691
0.013593
0.024106
-0.006033
0.018034
0.031283
0.006149
-0.006358
0.030299
-0.009697
-0.001218
0.030913
0.010813
0.013439
0.024103
-0.010501
0.014018
0.025438
-0.007566
0.029626
-0.035177
-0.000898
-0.004070
-0.007148
0.045010
0.011430
-0.007738
-0.004251
-0.003924
0.001763
-0.010109
0.034363
-0.003682
0.025901
0.026378
0.021300
0.006415
-0.005092
0.001528
0.014793
-0.000186
0.008894
-0.029920
0.001689
0.044762
0.001818
0.019987
0.029261
0.020647
0.010779
0.002009
-0.002614
0.009624
0.023789
-0.001357
-0.011493
-0.010494
0.032638
-0.006777
0.009526
0.049929
0.043374
-0.001768
0.027869
0.022752
0.039458
0.002739
0.022796
0.028108
0.037905
0.022808
0.032054
0.006266
0.040158
0.035688
0.030652
0.030208
-0.001555
0.004195
0.005142
0.009869
0.020949
0.024923
0.009984
0.003038
0.048093
-0.006894
0.012675
-0.010426
0.031624
0.000338
-0.012909
0.016501
0.009256
0.031002
0.020586
0.010660
0.021398
0.011418
0.015865
0.036123
0.024395
-0.005748
0.027078
0.032136
-0.017944
-0.003644
0.033026
0.048907
0.052479
0.043148
0.023372
0.021925
0.025700
-0.004461
0.031040
0.035784
0.003527
0.016425
0.043023
0.001570
0.030013
-0.000499
0.019196
0.015693
0.052900
0.048308
0.017417
0.000393
0.029270
0.001964
0.016703
0.012403
0.010515
-0.025527
0.022498
0.014910
0.000222
0.033770
0.010201
0.009509
0.016187
0.001827
0.008616
0.010410
0.011477
0.038574
0.019773
0.022997
0.004847
0.030118
0.017258
0.007586
0.002127
0.013790
-0.011255
0.025780
-0.018856
0.066066
0.002456
0.015138
0.028086
0.026130
0.003697
0.033308
0.027875
0.018551
0.005546
0.037522
0.015689
0.029851
0.013334
0.026901
0.015553
-0.003459
0.030206
0.034404
0.013835
0.032330
0.048532
0.031155
0.025506
0.006670
-0.014608
0.018695
0.028818
-0.002883
0.015353
0.009749
0.013721
0.025202
0.036578
-0.006745
0.024510
0.011743
0.017722
-0.000070
0.038592
0.033487
0.018254
-0.001148
0.028963
0.005570
0.012238
0.015266
0.045891
0.021805
0.016836
0.008314
0.049249
0.031037
0.033707
0.019996
0.027376
0.033553
-0.002348
0.009508
0.047041
0.008070
0.000113
0.004055
0.035637
-0.001417
0.033257
-0.005975
0.029406
0.053722
0.020248
0.011189
-0.003969
0.005526
0.018634
0.025066
0.001356
-0.000148
0.026576
0.025782
0.061840
0.048490
0.037323
0.026514
-0.005513
0.024808
0.019469
0.007436
0.018554
0.030443
-0.014355
0.035293
0.020020
0.003961
0.055478
0.029030
0.003535
0.002402
0.034118
0.014146
0.034733
0.012079
0.018938
0.005158
0.026966
0.006911
-0.015787
0.023091
0.010857
0.021824
0.035662
0.022005
0.013015
0.035331
0.045830
0.031512
0.040806
0.071692
-0.011197
0.038594
0.008033
0.053896
0.029644
-0.004763
0.004185
0.025835
0.013477
-0.002500
0.021041
0.038054
0.016544
0.033385
0.033872
0.027170
0.050487
0.039345
0.045558
0.036550
0.033063
-0.003830
0.031435
0.036672
0.019148
0.043250
-0.003141
0.032848
0.031562
0.019693
0.021237
0.014535
-0.000937
-0.011726
0.023510
0.016414
0.002929
0.027474
-0.011328
0.060592
0.018919
0.001610
0.043396
0.017176
0.019058
0.020755
0.041209
0.044006
0.026560
0.063961
0.011864
0.012634
0.009105
0.038067
0.003704
0.034756
0.011956
0.028029
0.034589
0.083324
0.085980
0.059384
0.130436
0.148862
0.095788
0.149749
0.166784
0.177550
0.189564
0.187305
0.201264
0.209499
0.178791
0.168466
0.108974
0.123752
0.118535
0.084440
0.065003
0.052860
0.054924
0.042360
0.003407
-0.046870
-0.072715
0.025449
0.561489
1.020530
0.618596
0.184339
-0.047468
-0.104857
-0.134837
-0.090885
-0.080098
-0.008883
0.033179
0.052033
0.042996
0.037482
0.079313
0.043299
0.060829
0.049289
0.051728
0.048027
0.046550
0.063796
0.072479
0.078716
0.139340
0.114672
0.127757
0.150646
0.168442
0.205082
0.194817
0.224712
0.241420
0.200264
0.234964
0.277909
0.266615
0.262304
0.309911
0.270784
0.261285
0.249066
0.256155
0.328476
0.242248
0.245818
0.230483
0.228850
0.228233
0.212945
0.159366
0.175334
0.132954
0.105925
0.115037
0.109634
0.129185
0.092321
0.062723
0.077952
0.047734
0.051918
0.048793
0.047836
0.023090
0.034980
0.054910
0.033757
0.044766
0.042637
0.025824
0.029771
0.003932
0.012525
0.036277
0.044890
0.002943
0.006159
0.050576
0.054533
0.059481
0.012622
0.040729
0.025707
0.043206
0.046472
0.044812
0.013810
0.048017
0.022475
0.017729
0.037005
0.072516
0.032075
0.016325
0.008186
0.016856
0.069400
0.018186
0.058792
0.039199
0.043545
0.051229
0.026691
0.084422
0.050952
0.035194
0.013267
0.035498
0.032915
0.039154
0.042030
0.035250
0.050221
0.021705
0.052045
0.032493
0.047340
-0.007434
0.044201
0.047169
0.027688
0.020262
0.001643
0.045557
0.027318
0.022823
0.036865
0.045159
0.031225
0.045494
0.035615
0.029069
0.025294
0.047971
0.059338
0.043196
0.055339
0.011252
0.071909
-0.008015
0.028752
0.069329
0.021315
0.076930
0.039252
0.032809
0.024688
0.037966
0.017993
0.034546
0.048176
0.020950
0.047896
0.010746
0.057250
0.051000
0.041968
0.023682
0.035997
0.024943
0.033816
0.033295
0.015206
-0.003587
0.038999
0.034911
0.047875
0.031973
0.022669
0.028872
0.021400
0.023176
0.042389
0.065863
0.031598
0.032342
0.047681
0.004497
0.053539
0.030000
0.071071
0.058283
0.099449
0.058297
0.063496
0.043454
0.051789
0.071615
0.035234
0.030900
0.028467
0.010797
0.038760
0.025599
0.058974
0.065585
0.002115
0.041060
0.084581
0.074357
0.038556
0.031367
0.009178
0.043716
0.024860
0.045906
0.062732
0.038055
0.025030
0.028238
0.039150
0.033568
0.078795
0.066031
0.016443
0.044318
0.047424
0.014601
0.032964
0.049132
0.091857
0.055035
0.072867
0.080597
0.091456
0.145127
0.119246
0.164359
0.156818
0.170399
0.142575
0.155843
0.190892
0.152413
0.157174
0.165513
0.134739
0.154684
0.106639
0.105022
0.062264
0.061776
0.066471
0.075230
0.037385
0.007527
-0.038528
0.055790
0.576541
1.022133
0.659134
0.161046
-0.002703
-0.075087
-0.125640
-0.084223
-0.021629
0.021885
0.024127
0.063216
0.050373
0.035499
0.046505
0.071093
0.062502
0.067281
0.036575
0.081374
0.084170
0.091601
0.082924
0.100777
0.114159
0.160946
0.108401
0.175084
0.159962
0.130385
0.199508
0.230212
0.260208
0.280140
0.262804
0.239236
0.246851
0.265954
0.275545
0.307452
0.313102
0.306448
0.276787
0.229925
0.293975
0.256416
0.214971
0.234076
0.210638
0.216835
0.195451
0.170131
0.169408
0.140173
0.122242
0.119496
0.094890
0.134814
0.119393
0.078773
0.037666
0.082249
0.037462
0.073892
0.064108
0.067761
0.025930
0.042123
0.004914
0.039661
0.030922
0.045898
0.023192
0.104125
0.023864
0.081822
0.061934
0.115256
0.041607
0.018742
0.037586
0.053529
0.027862
0.032156
0.068927
0.052499
-0.017609
0.066604
0.058570
0.006273
0.043760
0.059587
0.092783
0.041561
0.010390
0.081022
0.067416
0.073059
0.037622
0.017692
0.052652
0.089678
0.084137
0.078720
0.051000
0.052443
0.058098
0.025678
0.011244
0.050455
0.059162
0.047423
0.075506
0.049810
0.027116
0.043374
0.075608
0.038744
0.028405
0.048581
0.048359
0.045751
0.032471
0.007083
0.062021
0.061874
0.055514
0.062336
0.031465
0.046887
0.078319
0.022347
0.038207
0.025710
0.051254
0.046460
0.019467
0.033384
0.026976
0.049653
0.041009
0.051049
0.042194
0.061104
0.061241
0.051168
0.016875
0.042005
0.035425
0.044651
0.049022
0.057622
0.038399
0.069969
0.077676
0.018695
0.024647
0.033273
0.052750
0.028935
0.056115
0.038339
0.040488
0.036129
0.047911
0.036373
0.050891
0.051237
-0.020349
0.025521
0.048709
0.054564
0.067664
0.003034
0.033122
0.073303
0.077929
0.039556
0.058280
0.041867
0.057960
0.048794
0.038897
0.017630
0.059829
0.046530
0.055489
0.070432
0.062954
0.053792
0.035526
0.011652
0.057396
0.008635
0.068150
0.036961
0.056958
0.050646
0.031937
0.060665
0.056041
0.065266
0.056118
0.045217
0.084766
0.099569
0.024860
0.037251
0.024060
0.061414
0.060373
0.082683
0.063815
0.050673
0.098938
0.132733
0.105471
0.153228
0.176509
0.154535
0.202890
0.190821
0.195855
0.183166
0.184397
0.139863
0.176961
0.172096
0.124537
0.145822
0.082692
0.124992
0.101367
0.070288
0.054959
0.044376
0.056114
0.000107
-0.029686
0.075902
0.601059
1.045033
0.632531
0.162658
0.036671
-0.069108
-0.080833
-0.022109
-0.036809
0.023814
0.005673
0.033886
0.048157
0.043490
0.066736
0.043226
0.048574
0.068306
0.105867
0.077347
0.068846
0.091767
0.110631
0.130603
0.154811
0.150578
0.135577
0.134238
0.163618
0.193023
0.250013
0.202139
0.233164
0.213057
0.281401
0.271735
0.317886
0.284470
0.293506
0.263166
0.306274
0.325282
0.343377
0.267441
0.269940
0.312501
0.284918
0.260906
0.224917
0.196629
0.229936
0.162404
0.186478
0.115153
0.167623
0.108542
0.094795
0.073758
0.102994
0.044149
0.072334
0.075530
0.066348
0.050067
0.043902
0.099238
0.061822
0.035479
0.105534
0.090425
0.068184
0.025047
0.090355
0.056778
0.061807
0.084476
0.068684
0.072388
0.039498
0.019809
0.043915
0.049190
0.032914
0.075983
0.025129
0.042480
0.057974
0.049386
0.041237
0.063569
0.046726
0.024113
0.052307
0.046321
0.085754
0.048674
0.049094
0.052498
0.062385
0.043613
0.045631
0.049227
0.053200
0.063014
0.034773
0.048351
0.049078
0.038581
0.043081
0.048293
0.031667
0.059738
0.021049
0.027935
0.040821
0.036349
0.022498
0.055622
0.029283
0.035699
0.048537
0.055890
0.038644
0.027058
0.040776
0.075265
0.056797
0.050243
0.077164
0.007150
0.063209
0.056917
0.061724
0.023446
0.064563
0.043133
0.011673
0.039160
0.029959
0.049366
0.053230
0.054299
0.021291
0.045278
0.035631
0.089620
0.067080
0.046589
0.039179
0.030022
0.031883
0.059475
0.015714
0.044068
0.040509
0.063066
0.030746
0.028249
0.032829
0.024411
0.035644
0.048591
0.063741
0.010483
0.014449
0.029337
0.061148
0.061515
0.057114
0.031764
0.091800
0.040115
0.051318
0.045789
0.035415
0.059746
0.053683
0.039113
0.056918
0.058871
0.050246
0.058387
0.062437
0.059068
0.061281
0.080450
0.038962
0.045336
0.078823
0.045008
0.026562
0.039117
0.023521
0.031994
0.076696
0.051414
0.041337
0.029334
0.066419
0.056729
0.045504
0.076740
0.035347
0.040834
0.052070
0.027758
0.055061
0.049075
0.059329
0.018915
0.024490
0.046335
0.077344
0.055332
0.032287
0.055525
0.010075
0.068847
0.019353
0.087397
0.063238
0.069240
0.083842
0.063321
0.105811
0.134797
0.134474
0.126181
0.151169
0.182173
0.216431
0.207419
0.189958
0.175956
0.216596
0.177110
0.170400
0.149786
0.177355
0.120834
0.086823
0.071135
0.070178
0.059596
0.034208
0.002785
-0.029380
0.099033
0.617028
1.049982
0.636215
0.202096
-0.036785
-0.058462
-0.090705
-0.049928
-0.043978
0.018964
0.042015
0.056632
0.065684
0.031474
0.045641
0.029437
0.047770
0.057951
0.068137
0.090592
0.079149
0.124913
0.118479
0.149508
0.107745
0.119889
0.142138
0.180728
0.179022
0.201400
0.192704
0.209538
0.243905
0.228084
0.260881
0.273131
0.297339
0.274664
0.292208
0.312465
0.284397
0.279900
0.298910
0.303869
0.256769
0.297574
0.260269
0.268611
0.200655
0.207906
0.183886
0.189382
0.177735
0.172088
0.119279
0.124904
0.104026
0.135449
0.085758
0.095348
0.062927
0.065454
0.045186
0.069867
0.067708
0.049795
0.065401
0.027592
0.052305
0.077289
0.060177
0.067734
0.067958
0.056307
0.041137
0.088556
0.051216
0.056912
0.050661
0.044092
0.045861
0.041792
0.016584
0.088282
0.074100
0.034549
0.053640
0.078927
0.028797
0.042676
0.074216
0.023575
0.049505
0.034043
0.054812
0.065416
0.050397
0.067954
0.035198
0.084285
0.031062
0.076280
0.039382
0.021690
0.036639
0.026504
0.043733
0.039688
0.071852
0.033575
0.047760
0.024907
0.081329
0.036251
0.058521
0.048762
0.051828
0.039250
0.061269
0.064948
0.054133
0.057097
0.049938
0.098417
0.028719
0.063247
0.053041
0.053041
0.026572
0.065139
0.058814
0.022654
0.045394
0.069976
0.079791
0.020125
0.050202
0.062596
0.039059
0.042258
0.053780
0.043715
0.055834
0.064104
0.012735
0.031224
0.033212
0.021324
0.050175
0.069241
0.050163
0.017625
0.068906
0.057425
0.069446
0.072314
0.037205
0.032918
0.028626
0.025847
0.039777
0.041094
0.040563
0.026949
0.022049
0.039311
0.043203
0.034406
0.060425
0.069939
0.049672
0.060460
0.007885
0.026412
0.041484
0.029748
0.050502
0.033436
0.068410
0.017346
0.084050
0.058234
0.069737
0.031986
0.078184
0.029990
0.064789
0.066391
0.017003
0.028393
0.024573
0.042965
0.059160
0.024302
0.031488
0.054572
0.075285
0.033543
0.079032
0.028652
0.083722
0.047020
0.041450
0.027248
0.041488
0.033330
0.056780
0.067718
0.063152
0.061670
0.084027
0.065832
0.077234
0.067342
0.069495
0.088333
0.069106
0.088641
0.110512
0.077786
0.093922
0.151772
0.135829
0.148957
0.188855
0.194962
0.208670
0.233146
0.174476
0.162595
0.171054
0.134422
0.123896
0.163273
0.121483
0.130142
0.095027
0.059704
0.069389
0.073494
0.061214
-0.002765
-0.058765
0.075096
0.589428
1.075173
0.650565
0.176374
-0.029843
-0.101126
-0.096271
-0.092846
-0.007017
-0.006217
0.030199
0.056983
0.030454
0.033318
0.048712
0.066261
0.080902
0.058022
0.077088
0.070435
0.067145
0.106215
0.094106
0.104438
0.117573
0.174998
0.138295
0.152479
0.185451
0.185046
0.206373
0.231534
0.218614
0.256331
0.271398
0.273293
0.265701
0.304191
0.253080
0.270913
0.283707
0.296439
0.261180
0.294009
0.276923
0.230860
0.233761
0.182284
0.204468
0.243115
0.191552
0.161919
0.142174
0.192629
0.141963
0.129779
0.115924
0.054231
0.110381
0.085217
0.080374
0.078245
0.047928
0.039446
0.033646
0.036846
0.067557
0.053622
0.052958
0.055736
0.041820
0.054405
0.026909
0.050286
0.058507
0.037820
0.042225
0.032310
0.053555
0.071885
0.078557
0.024423
0.078724
0.049811
0.044044
0.025217
0.016202
0.060103
0.019854
0.037708
0.033785
0.034958
0.052917
0.058346
0.090680
0.026502
0.077448
0.035802
0.040653
0.032837
0.044780
0.058781
0.054403
0.062386
0.073122
0.080073
0.045437
0.024400
0.121753
0.027806
0.054357
0.057465
0.044992
0.039944
0.060504
0.063782
0.084153
0.034440
0.070239
0.011882
0.025103
0.060271
0.054159
0.025274
0.033216
0.008010
0.049341
0.018397
0.045033
0.078219
0.042961
0.029064
0.075964
0.024216
0.036931
0.067484
0.034021
0.018536
0.030907
0.075352
0.012894
0.038515
0.035963
0.077869
0.040804
0.064521
0.013672
0.025617
0.026288
0.022936
0.026919
0.063098
0.038804
0.042314
0.047157
0.020684
0.034845
0.044362
0.055538
0.019869
0.051187
0.044934
0.024420
0.028557
0.014126
0.073646
0.059461
0.039379
0.048655
0.087497
0.050605
0.039846
0.060320
0.048676
0.000346
0.031467
0.017199
0.051029
-0.006708
0.068658
0.050212
0.028122
0.065696
0.046614
0.025341
0.031745
0.015821
0.069918
0.036549
0.062844
0.027303
0.044193
0.051341
0.061420
0.027376
0.008266
0.043629
0.036850
0.016900
0.044807
0.049575
0.064864
0.075992
0.069210
0.048886
0.028779
0.067348
0.026607
0.037139
0.054152
0.058677
0.030482
0.052944
0.034190
0.060919
0.063574
0.050714
0.052659
0.034230
0.055717
0.086092
0.071388
0.090789
0.095164
0.135446
0.160001
0.130822
0.184859
0.159833
0.155226
0.188097
0.198863
0.186423
0.182960
0.143445
0.164967
0.173871
0.108189
0.117260
0.097417
0.090140
0.109099
0.088558
0.070844
0.034478
-0.037101
-0.058061
0.072869
0.616507
1.003428
0.675306
0.164939
-0.008381
-0.088697
-0.107762
-0.099417
-0.017800
-0.000378
-0.007569
0.073412
0.028028
0.015162
0.019011
0.036911
0.070201
0.069331
0.083253
0.053312
0.110108
0.127168
0.091384
0.084054
0.108533
0.136729
0.129290
0.162500
0.160601
0.165671
0.193650
0.216820
0.207294
0.243270
0.259252
0.283382
0.262992
0.299351
0.294744
0.306488
0.312635
0.280411
0.283202
0.284806
0.236311
0.262078
0.239468
0.204013
0.189492
0.198346
0.208414
0.167559
0.128909
0.091671
0.132871
0.124919
0.097860
0.081777
0.059393
0.101382
0.074102
0.060561
0.067567
0.055475
0.064440
0.044586
0.033249
0.038870
0.010753
0.035797
0.079339
0.045886
0.020846
0.021387
0.045043
0.004766
0.042552
0.033424
0.037224
0.038959
0.052610
0.027863
0.016850
0.040472
0.075951
0.041669
0.011805
0.056919
0.040857
0.066437
0.066520
0.059356
0.082418
0.033154
0.050041
0.033242
0.030699
0.003459
0.033111
-0.000256
0.042043
0.021276
0.037258
0.045008
0.048912
0.049162
0.037182
0.039412
0.059033
0.038979
0.027650
0.085638
0.046357
0.064405
0.030254
0.029922
0.034179
0.012670
0.028279
-0.000487
0.054787
0.053400
0.035760
0.065120
0.069172
0.069943
0.026633
0.025175
0.026040
0.062790
0.044329
0.028409
0.028675
0.042178
0.022273
0.008201
0.034562
0.023858
0.009943
0.046481
0.054806
0.034560
0.039212
0.062759
0.031855
0.048373
0.013097
0.049935
0.001685
0.037256
0.063468
0.036004
0.024671
0.015382
0.029550
0.023097
0.050754
0.011969
0.005047
0.030865
0.027599
0.037785
0.055121
0.030887
0.041171
0.045098
0.036357
0.042297
0.019286
0.081608
0.063439
0.047293
0.032210
0.043078
0.049368
0.065220
0.034699
0.009156
0.033339
0.028456
0.031310
0.047481
0.040178
0.023429
0.096087
0.033755
0.015874
0.026211
0.028036
0.042866
0.005242
0.094499
0.018351
0.041006
0.026129
0.024983
0.037202
-0.026762
0.003244
0.050299
0.038533
0.003852
0.023658
0.032055
0.069087
0.064258
0.059056
0.036796
0.051375
0.061908
0.025099
0.064410
-0.009045
0.054296
0.053450
0.069372
0.080998
0.074131
0.081784
0.094012
0.137550
0.135028
0.099585
0.181613
0.171228
0.171487
0.185453
0.172318
0.144987
0.185392
0.145133
0.120613
0.111168
0.130250
0.119052
0.088144
0.057519
0.041312
0.045968
0.022982
-0.005698
-0.058825
0.083659
0.586813
0.989288
0.659218
0.140770
-0.068704
-0.083084
-0.161713
-0.139088
-0.036060
-0.004955
-0.007056
0.025409
0.047022
0.025602
0.064156
0.027445
0.031642
0.046043
0.047703
0.045021
0.114502
0.105018
0.070354
0.110163
0.070826
0.105643
0.132816
0.174583
0.152364
0.174895
0.168546
0.219352
0.217975
0.223452
0.285821
0.251421
0.281104
0.292143
0.271095
0.285184
0.254432
0.279732
0.274610
0.251595
0.271222
0.223370
0.218757
0.232883
0.206050
0.199681
0.165988
0.147345
0.150415
0.131150
0.115622
0.090372
0.129855
0.089652
0.061647
0.063847
0.058180
0.020374
0.033004
0.034767
0.036227
0.014963
0.049302
0.014988
0.020085
0.051523
0.001293
0.032242
0.025811
0.029551
0.031492
-0.015759
0.061894
0.027840
0.069269
0.047582
0.036968
0.023955
0.016044
0.048722
0.039442
0.015550
0.009444
0.035141
-0.003432
0.039339
0.032681
0.032701
0.013835
0.012031
-0.001926
0.058350
0.065507
0.049243
0.038620
0.027671
0.035564
0.049063
0.037181
0.040645
0.036280
0.003080
-0.025503
0.013587
0.010579
0.037920
0.007524
0.052045
0.020437
0.026457
0.001749
0.042651
0.044565
0.015774
0.002003
0.031825
0.007967
0.023779
0.011317
0.031438
0.014697
0.004167
0.004040
-0.024064
0.035575
0.020451
-0.002970
0.007946
0.029849
0.048706
0.072965
0.019161
0.013475
0.077565
0.039461
0.062612
0.012576
0.031034
0.017964
0.053076
-0.007712
0.046394
0.017104
0.026539
0.073424
0.008952
-0.012517
0.000536
-0.035165
0.032084
-0.002498
0.043084
0.040426
0.028929
0.027443
0.041623
0.019752
0.037386
0.021171
0.049512
0.011575
0.053549
-0.007024
0.012005
0.023777
-0.006717
0.019048
0.025039
0.032626
0.013991
-0.001046
0.050364
0.033370
0.039117
0.042650
0.074009
0.024275
0.039222
0.022843
0.035379
0.010825
0.002218
0.026920
-0.003196
-0.002683
0.012485
0.042780
0.005524
0.019238
0.027726
0.029758
0.027689
0.000091
0.006856
0.025123
0.020435
-0.013078
0.002992
0.015992
-0.005930
0.032814
0.024276
0.004521
0.015152
0.032860
0.026286
0.038444
0.013268
0.041963
0.031978
0.035113
-0.012598
0.039370
0.000220
0.008605
0.001061
0.027898
0.041411
0.015093
0.009102
0.053911
0.005710
0.009627
0.066625
0.015175
0.027924
0.060178
0.037427
0.059682
0.082915
0.109312
0.141134
0.111397
0.145397
0.201335
0.147365
0.169327
0.199792
0.156525
0.138944
0.106481
0.135740
0.078966
0.096907
0.072829
0.077259
0.065447
0.045942
0.032370
-0.012686
-0.059117
-0.095848
0.074630
0.542638
1.003735
0.652451
0.122161
-0.005300
-0.135434
-0.124875
-0.132618
-0.032473
-0.011545
-0.030588
0.001457
-0.010264
-0.005988
0.061156
0.042499
0.026141
0.051664
0.096987
0.062334
0.074211
0.086010
0.087605
0.085961
0.092285
0.113391
0.105725
0.145687
0.108476
0.177570
0.189482
0.167718
0.214273
0.232535
0.195001
0.246953
0.233639
0.245810
0.277379
0.274319
0.294170
0.288787
0.255696
0.236354
0.236869
0.242797
0.222799
0.198410
0.202388
0.187060
0.150215
0.124977
0.129035
0.102324
0.137690
0.126145
0.077082
0.106377
0.057732
0.050970
0.048284
0.033397
0.004303
0.041050
0.048731
0.016830
0.050209
-0.000769
0.015728
0.016375
0.054803
0.023327
-0.024830
0.013816
0.005406
0.049928
-0.006996
0.040294
0.026973
0.011322
0.032001
0.032377
0.035914
0.024894
0.009487
0.020111
0.000252
0.014944
0.003844
0.027899
0.005279
0.032829
0.001905
0.034259
0.047104
0.026618
0.029607
-0.001072
0.020529
0.012762
-0.003120
0.058577
0.046441
0.013598
0.034649
0.008966
0.030434
0.036440
0.025304
0.020053
-0.002290
0.007163
0.004026
0.017388
0.047627
-0.004324
0.027353
0.002760
0.007140
-0.041037
0.030690
0.030421
0.010330
0.010430
0.020003
-0.000931
-0.001276
0.039600
0.050903
0.001628
0.013341
-0.016637
0.002154
0.019278
-0.010178
0.021054
0.025651
0.022506
0.005336
-0.004468
0.029125
-0.008381
0.059246
0.019864
0.005925
0.009460
0.032425
0.006873
-0.007654
0.028073
0.018893
0.002450
0.010702
0.014210
0.050683
0.044013
0.010174
-0.011379
0.013586
0.003553
0.032155
-0.016438
0.058205
0.000519
0.011018
0.014313
0.040753
0.067108
-0.005846
0.013824
0.031520
-0.015477
0.016138
-0.007881
0.021289
0.001906
0.014667
0.020041
-0.016613
0.016254
0.028194
-0.036182
0.033954
-0.009121
-0.002050
-0.004788
0.010342
0.018108
0.018887
0.031899
0.004024
0.003680
0.021088
-0.006811
-0.007496
-0.001584
0.004674
0.044684
0.007650
0.021407
0.005451
0.025487
0.043509
0.038728
0.024942
0.005754
0.027165
0.018548
0.022128
-0.000991
0.045809
0.004293
0.040725
0.029813
0.017543
0.035505
-0.004844
0.042644
0.036482
0.076408
0.050446
0.074041
0.069997
0.099148
0.174374
0.121143
0.141754
0.162555
0.174960
0.160379
0.151884
0.140839
0.123607
0.109829
0.071672
0.097236
0.099418
0.045638
0.050632
0.030395
0.037405
-0.007658
-0.011721
-0.058247
0.056867
0.585518
1.000936
0.657469
0.116279
-0.073194
-0.119531
-0.146867
-0.133794
-0.089578
-0.029513
-0.019047
-0.004350
0.039656
-0.015689
0.005445
0.028531
-0.003504
0.027217
0.033002
0.056418
0.042235
0.055410
0.058339
0.122144
0.109713
0.053634
0.122001
0.072678
0.111396
0.140468
0.172825
0.166905
0.195634
0.202472
0.199509
0.248196
0.269589
0.252903
0.251389
0.236436
0.275753
0.251183
0.228842
0.276042
0.185424
0.281138
0.203270
0.158628
0.167769
0.174769
0.180316
0.143583
0.085669
0.129472
0.101791
0.071199
0.076953
0.063096
0.022971
0.034290
0.054297
0.026874
0.010642
0.007869
0.017210
0.051820
-0.012421
0.002903
0.001199
0.008847
-0.001271
0.026455
-0.008546
0.029266
-0.023222
-0.000523
-0.004829
0.022303
-0.023470
-0.045236
0.000661
-0.002795
-0.002042
-0.017059
0.021596
-0.015312
-0.003549
-0.036819
-0.002018
-0.003329
-0.038892
-0.001583
0.034716
-0.017700
0.023092
-0.002251
-0.033089
-0.017047
-0.047294
0.042846
-0.008276
-0.001667
-0.017212
-0.000291
-0.043868
0.024834
-0.009931
0.023376
-0.013608
-0.013032
0.020711
0.000987
-0.030789
0.003486
-0.019974
-0.035533
0.043640
0.028006
0.012274
0.003384
0.010467
-0.031980
0.010828
-0.003023
0.006738
-0.010932
0.045999
-0.021398
0.011409
0.004070
-0.015288
-0.004619
-0.011780
0.010601
0.010398
-0.022433
0.003566
0.003663
-0.003581
-0.016099
-0.004011
0.006666
0.003577
-0.001785
0.005340
-0.024757
-0.003929
-0.001186
-0.013810
0.002475
0.010249
0.024617
0.016032
-0.001546
-0.010844
-0.015508
0.001538
0.002592
-0.007046
0.012445
0.008927
-0.016713
-0.024065
-0.027707
-0.005451
-0.021700
-0.022488
-0.004260
0.009014
-0.008389
0.022282
-0.022138
0.010537
0.015819
-0.003221
-0.016513
0.009604
-0.013705
-0.023779
-0.030677
0.015092
0.013695
0.009859
-0.008920
0.001653
0.013517
0.002325
-0.014397
-0.024767
-0.043835
0.011226
-0.003449
-0.017130
0.025515
-0.005258
-0.012190
-0.001793
-0.033005
-0.011722
0.010938
0.014883
-0.024429
-0.021075
-0.041148
-0.012411
0.035231
-0.016814
0.016112
0.002678
-0.036817
-0.039186
-0.006180
-0.004215
-0.015800
-0.002230
-0.023024
-0.023592
0.009053
0.015112
0.018433
0.056795
0.064082
0.046178
0.052603
0.054692
0.068892
0.134629
0.118873
0.118187
0.108042
0.180300
0.140450
0.148203
0.106666
0.095412
0.081197
0.065029
0.072468
0.034748
0.031417
0.045262
-0.000772
0.023439
-0.040783
-0.059186
-0.113303
0.072131
0.567661
0.975611
0.584098
0.107954
-0.074779
-0.181706
-0.186468
-0.132836
-0.099566
-0.083134
-0.021057
-0.020924
-0.029120
-0.032568
0.006444
-0.017863
-0.022456
0.007265
0.040023
0.030167
0.003689
0.020875
0.015563
0.032511
0.079319
0.084716
0.063067
0.117398
0.129047
0.174036
0.180186
0.159038
0.162691
0.193331
0.201121
0.228126
0.237700
0.226992
0.242784
0.235957
0.226497
0.222710
0.218050
0.230172
0.226894
0.231645
0.192776
0.159957
0.175120
0.140707
0.155231
0.082199
0.093196
0.074546
0.070441
0.097297
0.041576
0.043004
0.014626
0.058355
0.045921
0.010391
-0.004479
0.000516
0.008626
-0.030654
0.001513
-0.024429
-0.050394
-0.049601
-0.024077
-0.031045
0.006825
-0.020804
-0.040050
-0.021342
-0.020551
-0.002556
-0.031382
-0.033803
0.005803
-0.001903
-0.031915
-0.014764
-0.016984
-0.013076
0.006993
-0.007781
-0.017070
-0.012941
-0.025046
-0.012918
-0.012651
0.005384
-0.027781
0.009042
-0.006124
-0.026550
-0.011629
0.031557
0.020091
-0.019693
0.012786
-0.040640
-0.009372
0.043849
-0.034360
-0.005165
-0.010890
-0.040504
0.022858
-0.047551
0.017996
0.014574
0.008565
-0.003436
-0.027605
0.010096
-0.017712
-0.052284
-0.014607
-0.002249
0.003031
-0.009861
-0.068011
-0.031851
-0.009879
0.009764
-0.027566
-0.070827
-0.018713
0.009807
-0.024854
-0.042698
-0.008503
-0.031820
-0.007188
-0.007284
-0.068380
-0.013901
-0.027820
-0.019144
-0.009256
-0.029244
-0.043741
-0.031624
-0.034189
-0.022663
0.002916
-0.029075
-0.051146
0.007876
-0.036193
0.013563
-0.010592
-0.005138
-0.001101
-0.051585
-0.044815
-0.019377
-0.021631
-0.024837
-0.029414
0.016291
-0.028746
-0.033465
-0.018807
-0.023322
-0.008761
-0.011059
0.000169
0.004207
-0.015930
-0.047222
-0.043268
-0.054733
-0.050555
-0.032900
-0.020371
-0.035581
-0.020142
-0.023500
-0.026160
-0.028707
-0.000591
0.014833
-0.030106
-0.032827
-0.000017
0.008426
-0.004887
-0.026551
-0.010583
-0.049733
0.024910
0.022940
0.003970
-0.011496
-0.025210
-0.042065
-0.005101
-0.001136
0.008895
-0.012277
-0.048365
0.000533
-0.040366
-0.043373
-0.010930
-0.027161
0.003075
-0.049180
-0.009412
-0.030379
-0.028396
-0.026701
-0.020268
-0.020826
-0.019727
-0.012841
0.014771
0.023231
0.026728
0.074558
0.082624
0.096678
0.066168
0.122602
0.142099
0.128789
0.113960
0.112475
0.124867
0.078562
0.105134
0.055876
0.022582
0.019388
0.024345
-0.011137
-0.001203
-0.006157
-0.023525
-0.064971
-0.093317
0.020606
0.522210
0.993991
0.551600
0.123886
-0.121503
-0.165400
-0.128215
-0.123383
-0.089151
-0.077243
-0.031688
-0.051317
-0.001029
-0.033834
-0.006536
-0.006576
-0.023891
-0.006849
-0.002356
0.003680
-0.018844
0.019287
0.015951
0.060704
0.008421
0.065897
0.045042
0.081389
0.111916
0.115365
0.160477
0.127005
0.150816
0.180634
0.127978
0.200554
0.207661
0.193271
0.209750
0.218247
0.239787
0.236184
0.183718
0.222521
0.206985
0.174216
0.222064
0.150203
0.150151
0.127595
0.152777
0.104510
0.082313
0.082816
0.064575
0.054308
0.026648
0.013553
0.054572
-0.019140
-0.006150
-0.011660
0.008714
-0.006733
-0.017392
-0.051537
-0.024370
-0.024887
-0.055481
-0.019813
-0.039348
-0.042742
-0.030402
-0.016571
-0.008184
-0.012380
0.017108
-0.018200
-0.034261
-0.023179
-0.026104
-0.061360
-0.030224
-0.066260
-0.054691
-0.008953
-0.010140
-0.043504
-0.006342
-0.012842
-0.053051
-0.023096
-0.033346
-0.042544
0.006874
0.011173
0.043307
0.008243
-0.038342
-0.053294
-0.011441
-0.021115
-0.021342
0.006644
-0.051972
-0.047301
-0.009928
-0.039483
-0.026316
-0.008616
0.005527
-0.010523
-0.018154
-0.001745
-0.002453
-0.020577
-0.041484
0.006511
-0.000825
-0.024629
-0.011451
-0.021144
-0.011128
0.024221
-0.021543
-0.050167
-0.017373
-0.064502
0.001147
-0.043828
-0.076801
-0.041716
-0.015646
0.006625
-0.018768
-0.042241
-0.042891
-0.059039
-0.032797
-0.038988
-0.008016
-0.052862
-0.040122
-0.023998
0.000834
-0.028526
-0.052788
-0.045121
-0.028821
-0.057518
-0.062328
-0.008377
-0.028947
-0.032168
-0.023939
-0.044120
-0.021833
-0.058517
-0.055457
-0.019607
-0.015302
-0.044312
0.007518
-0.013689
0.011029
-0.036904
-0.040614
-0.068777
-0.043472
-0.051868
-0.013394
-0.005919
-0.040195
-0.007028
-0.018435
0.003511
-0.000286
-0.051807
-0.037964
-0.073633
-0.021661
-0.041209
-0.034680
-0.032720
0.006246
-0.052394
-0.025517
-0.023900
-0.037770
-0.017107
-0.004533
-0.046724
-0.037062
-0.018979
-0.057695
-0.056964
-0.022337
-0.049581
-0.045192
-0.029536
-0.037155
-0.058283
-0.033382
-0.000892
-0.060038
-0.038434
-0.033979
-0.067636
0.007525
-0.028173
-0.023710
-0.039320
-0.027691
-0.053937
-0.028547
-0.013574
-0.006874
-0.017501
-0.042276
0.019867
-0.016373
-0.039855
-0.027952
-0.023267
0.012414
0.002680
0.003422
0.026467
0.037010
0.032789
0.104494
0.094596
0.108186
0.087223
0.111533
0.083383
0.129204
0.093503
0.105132
0.074779
0.075243
0.010939
0.071836
0.040763
-0.009494
-0.003786
-0.020889
-0.050940
-0.066551
-0.138519
-0.021773
0.517463
1.005187
0.595151
0.114898
-0.133879
-0.179534
-0.164864
-0.151956
-0.131084
-0.077302
-0.041550
-0.017696
-0.031375
-0.002546
-0.037553
-0.039660
-0.015538
-0.038782
-0.014806
-0.032120
-0.022082
0.004460
0.003918
0.054296
0.021575
0.062345
0.059942
0.066141
0.084552
0.093167
0.134984
0.149960
0.185668
0.131575
0.164230
0.212523
0.170839
0.231374
0.206526
0.230651
0.218776
0.195614
0.208061
0.233138
0.202007
0.174862
0.168048
0.164412
0.160564
0.156019
0.121871
0.088960
0.069057
0.058469
0.063356
0.034440
0.042336
0.047176
0.027924
-0.010293
-0.024811
0.000656
-0.069161
-0.040195
0.008198
-0.022493
-0.047972
-0.024293
0.009018
-0.026553
-0.029840
-0.043483
-0.015275
-0.028184
-0.038793
-0.031786
-0.020951
-0.047543
0.007156
-0.039808
-0.056339
-0.054554
-0.022230
-0.019105
-0.023015
-0.023413
-0.043049
-0.048899
-0.052654
-0.039456
-0.062655
-0.024662
-0.044700
-0.042344
-0.045152
-0.051539
-0.067657
-0.015824
-0.037531
-0.031030
-0.017656
-0.058069
-0.040109
-0.056618
-0.064361
-0.021699
-0.058360
-0.027774
-0.044995
-0.054293
-0.062083
-0.046285
-0.041679
-0.064981
-0.028514
-0.031408
-0.042638
-0.039434
-0.041307
-0.070366
-0.011214
-0.030256
-0.065645
-0.028247
-0.024622
-0.046839
-0.025326
-0.025923
-0.058338
-0.028921
-0.033127
-0.033923
-0.043438
-0.017878
-0.059963
-0.025950
-0.064342
-0.070241
-0.047665
-0.068050
-0.002485
-0.025999
-0.019218
-0.043899
-0.039163
-0.007549
-0.012873
-0.067555
-0.027770
-0.021833
-0.004670
-0.023743
-0.044824
-0.049870
-0.011362
-0.039610
-0.010485
-0.031329
-0.036500
-0.042759
-0.033251
-0.064392
-0.069761
-0.045333
-0.051181
-0.034542
0.022665
-0.037700
-0.050062
-0.050494
-0.051465
-0.039502
-0.059856
-0.043660
-0.075250
0.007547
-0.062191
-0.048990
-0.041454
-0.034963
-0.056195
-0.034044
-0.074674
-0.055752
-0.004959
-0.058335
-0.016027
-0.018851
-0.067844
-0.066931
-0.019266
-0.043269
-0.007958
-0.087828
-0.039015
-0.028855
-0.052593
-0.043812
-0.016485
-0.014108
-0.030806
-0.068892
-0.083250
-0.063812
-0.022655
-0.044233
-0.074111
-0.014278
-0.054535
-0.041407
-0.022393
-0.048493
-0.053137
-0.053824
-0.047323
-0.034200
0.019687
-0.010991
0.001354
-0.025063
0.022191
0.027025
0.044189
0.074214
0.080477
0.120272
0.114238
0.083216
0.123349
0.102960
0.135467
0.119992
0.069983
0.068776
0.073041
0.040781
0.044561
-0.001382
0.029442
-0.019388
-0.015612
-0.046657
-0.076089
-0.155685
-0.035373
0.500340
0.939482
0.569256
0.067703
-0.130031
-0.155201
-0.215797
-0.160677
-0.153753
-0.094994
-0.057718
-0.050160
-0.053712
-0.028548
-0.038407
-0.019610
-0.005918
-0.058822
-0.024049
-0.004676
-0.002086
0.000213
0.012916
0.004523
0.007808
0.055220
0.085772
0.091863
0.117321
0.098668
0.088663
0.172752
0.148687
0.144751
0.179175
0.169971
0.146060
0.165177
0.169152
0.173197
0.186354
0.215276
0.205393
0.164172
0.170049
0.178471
0.158963
0.137524
0.161128
0.122692
0.090238
0.042712
0.063433
0.039556
0.057851
0.029143
0.003641
0.002681
0.016135
-0.023762
-0.006403
-0.037713
-0.010657
0.010992
-0.038604
-0.031409
-0.067984
-0.030152
-0.066435
-0.042261
-0.055422
-0.055056
-0.034404
-0.043669
-0.040074
-0.053586
-0.078362
-0.059306
-0.058850
-0.026500
-0.048185
-0.093320
-0.052382
-0.025164
-0.043875
-0.042219
-0.049455
-0.050096
-0.065938
-0.049101
-0.024669
-0.035595
-0.047865
-0.035209
-0.056483
-0.062769
-0.090866
-0.026906
-0.049263
-0.004020
-0.055831
-0.039154
-0.023778
-0.023218
-0.059782
-0.083257
-0.058165
-0.005194
-0.050356
-0.043999
-0.074715
-0.080956
-0.091783
-0.095620
-0.060824
-0.023501
-0.041935
-0.078540
-0.001217
-0.022239
-0.056252
-0.072303
-0.074588
-0.013011
-0.047261
-0.054830
-0.022748
-0.060246
-0.049791
-0.049230
-0.040178
-0.058616
-0.066298
-0.063275
-0.052250
-0.054077
-0.033027
-0.048358
-0.025315
-0.044417
-0.022801
-0.070136
-0.070308
-0.065583
-0.061257
-0.059506
-0.082660
-0.057452
-0.036771
-0.042485
-0.044514
-0.050545
-0.072725
-0.076474
-0.019715
-0.058386
-0.062280
-0.015890
-0.073639
-0.061818
-0.034536
-0.043268
-0.019710
-0.024046
-0.031161
-0.054933
-0.057051
-0.055023
-0.052227
-0.021761
-0.026982
-0.045669
-0.058858
-0.064755
-0.040292
-0.055621
-0.050739
-0.004801
-0.049165
-0.096196
-0.045059
-0.092620
-0.078947
-0.046761
-0.056776
-0.063035
-0.046601
-0.014186
-0.017654
-0.051164
-0.034043
-0.078922
-0.041208
-0.046302
-0.063836
-0.066631
-0.024368
-0.066433
-0.036594
-0.050601
-0.039103
-0.034446
-0.027097
-0.036616
-0.018418
-0.084023
-0.074343
-0.060566
-0.050757
-0.020250
-0.023896
-0.029254
-0.086618
-0.033915
-0.023967
-0.003349
-0.057999
-0.057730
-0.006028
0.010999
-0.014864
-0.013404
-0.019408
-0.003754
0.054212
0.065043
0.022058
0.123112
0.077185
0.122785
0.108879
0.136379
0.076528
0.080784
0.063657
0.058389
0.043782
0.045195
-0.006940
-0.026574
-0.014352
-0.026534
-0.037905
-0.056796
-0.095663
-0.135626
0.034815
0.514320
0.938065
0.547924
0.071067
-0.125287
-0.128894
-0.198499
-0.176399
-0.113474
-0.079368
-0.101352
-0.053454
-0.038614
-0.059241
-0.049356
0.026557
-0.026270
-0.061732
0.023500
-0.036416
-0.001658
-0.010960
-0.002226
0.010599
0.012494
0.005368
0.060979
0.031624
0.038163
0.117438
0.099227
0.124128
0.151276
0.134631
0.163768
0.188522
0.169762
0.196439
0.183441
0.181250
0.226750
0.159833
0.209802
0.232954
0.166225
0.163531
0.152024
0.083391
0.122188
0.094662
0.083361
0.093365
0.059545
0.070689
0.026754
0.010921
0.029410
0.010272
-0.047447
-0.034909
-0.021941
-0.047425
-0.044285
-0.049184
-0.046120
-0.039280
-0.044790
-0.056518
-0.065844
-0.041676
-0.073615
-0.061648
-0.020866
-0.051068
-0.042098
-0.089314
-0.020491
-0.058457
-0.034741
-0.079585
-0.051155
-0.020030
-0.056697
-0.054653
-0.057342
-0.049585
-0.061737
-0.041519
-0.034378
-0.033053
-0.086121
-0.015755
-0.061663
-0.065114
-0.067626
-0.022875
-0.045735
-0.089540
-0.032842
-0.054503
-0.064384
-0.052193
-0.060071
-0.054868
-0.058042
-0.023952
-0.088378
-0.085045
-0.065982
-0.027599
-0.071854
-0.017383
-0.019715
-0.058927
-0.041558
-0.065704
-0.050008
-0.061964
-0.028767
-0.081083
-0.037594
-0.043541
-0.064914
-0.018394
-0.064285
-0.043880
-0.027168
-0.054617
-0.045480
-0.053921
-0.034841
-0.062941
-0.049358
-0.085039
-0.056974
-0.022393
-0.050250
-0.062614
-0.047977
-0.044738
-0.057107
-0.058758
-0.034274
-0.051764
-0.056689
-0.071067
-0.018187
-0.019587
-0.048660
-0.035901
-0.065024
-0.017692
-0.058272
-0.062172
-0.059592
-0.074263
-0.074362
-0.050457
-0.012179
-0.031824
-0.025841
-0.023816
-0.018244
-0.061008
-0.055865
-0.042607
-0.014471
-0.054753
-0.070680
-0.029471
-0.073235
-0.052523
-0.012359
-0.049342
-0.060628
-0.043608
-0.079391
-0.039773
-0.044337
-0.024326
-0.044595
-0.048865
-0.058811
-0.095419
-0.062477
-0.061922
-0.061385
-0.052989
-0.065650
-0.041560
-0.052888
-0.045239
-0.072183
-0.029949
-0.009224
-0.042915
-0.041000
-0.044435
-0.073540
-0.040341
-0.059216
-0.057167
-0.051553
-0.036019
-0.065344
-0.047652
-0.029996
-0.025315
-0.019728
-0.047086
-0.068514
-0.069111
-0.068197
-0.064433
-0.070505
-0.066690
-0.052545
-0.052966
-0.023413
-0.038146
-0.012082
-0.017431
0.011683
-0.001483
0.034854
0.062040
0.062612
0.094185
0.077284
0.100464
0.132120
0.104269
0.110240
0.079857
0.034812
0.092153
0.066293
0.015880
0.010712
-0.000587
0.013684
-0.017782
-0.053648
-0.082325
-0.088068
-0.121049
0.042576
0.520240
0.912888
0.564780
0.086920
-0.109277
-0.226394
-0.185338
-0.191316
-0.130340
-0.094450
-0.099978
-0.030910
-0.067044
-0.046899
-0.015406
-0.018442
-0.002498
-0.008437
-0.016623
0.003954
-0.036534
0.044136
0.012595
0.001452
0.023672
0.038369
0.073744
0.069214
0.081479
0.106480
0.114246
0.164272
0.093843
0.131049
0.174794
0.176196
0.195526
0.187604
0.186401
0.214492
0.214283
0.179019
0.236594
0.190458
0.167003
0.199432
0.165205
0.152212
0.119608
0.066782
0.077150
0.077226
0.089809
0.018066
0.012172
0.041987
0.020492
0.006572
-0.005380
-0.014925
-0.040119
0.002767
0.005363
-0.016369
-0.010718
-0.025198
-0.043883
-0.065759
-0.049438
-0.059964
-0.065766
-0.063649
-0.051360
-0.033904
-0.032619
-0.026787
-0.051780
-0.039592
-0.054459
-0.035984
-0.041222
-0.039781
-0.045002
-0.076649
-0.051430
-0.055159
-0.051741
-0.035122
-0.082699
-0.061867
-0.077738
-0.046647
-0.062925
-0.018217
-0.016478
-0.044008
-0.050763
-0.025584
-0.038902
-0.046517
-0.064075
-0.059515
-0.045089
-0.026213
-0.044778
-0.033357
-0.023824
-0.059336
-0.057349
-0.054203
-0.017759
-0.049800
-0.039881
-0.051465
-0.036290
-0.065820
-0.052093
-0.094969
-0.084664
-0.070620
-0.040885
-0.044133
-0.018610
-0.034310
-0.039951
-0.039404
-0.036188
-0.049535
-0.072042
-0.047819
-0.065066
-0.049857
-0.024837
-0.048727
0.008808
-0.064843
-0.031846
-0.048179
-0.046496
-0.083141
-0.043546
-0.059548
-0.091485
-0.059075
-0.041285
-0.042626
-0.053419
-0.041796
-0.043961
-0.057255
-0.047433
-0.023153
-0.047185
-0.017580
-0.032605
-0.027774
-0.018090
-0.008856
-0.055868
-0.035875
-0.010201
-0.034403
-0.050072
-0.003133
-0.011800
-0.072472
-0.047540
-0.088790
-0.056785
-0.083002
-0.048004
-0.042891
-0.064447
-0.045744
-0.043878
-0.001585
-0.029285
-0.052857
-0.027255
-0.057734
-0.061382
-0.022131
-0.068681
-0.035167
-0.039026
-0.052218
-0.069244
-0.081933
-0.051356
-0.064364
-0.028954
-0.055550
-0.072332
-0.046188
-0.012120
-0.019695
-0.023732
-0.054841
-0.061428
-0.066240
-0.045720
-0.048234
-0.050084
-0.053932
-0.057456
-0.071786
-0.032064
-0.039253
0.015598
0.006375
-0.010400
0.038094
-0.002443
0.099434
0.047865
0.085589
0.090987
0.075865
0.090571
0.090786
0.095098
0.113518
0.080240
0.071630
0.054026
0.015125
0.008257
0.014560
0.012453
-0.025459
-0.022027
-0.083223
-0.095682
-0.103229
-0.007480
0.496468
0.966409
0.567250
0.043205
-0.120686
-0.176600
-0.192124
-0.189955
-0.188207
-0.105493
-0.081162
-0.058377
-0.055163
-0.042698
-0.037085
-0.015324
-0.014469
-0.074002
-0.034741
0.000967
-0.022439
0.001832
0.001589
0.005515
0.030060
0.053182
0.042648
0.083664
0.107896
0.073641
0.099139
0.137397
0.130876
0.134181
0.165068
0.184115
0.199757
0.244732
0.193425
0.177667
0.204182
0.181074
0.173209
0.196827
0.139860
0.159302
0.154925
0.194796
0.120923
0.109864
0.065924
0.091839
0.080826
0.064390
0.039330
0.024813
0.011387
0.004377
0.007652
0.007344
0.017022
-0.015577
0.000447
-0.048551
-0.003749
-0.030405
-0.068131
-0.059135
-0.060267
-0.062420
-0.000077
-0.004963
-0.071111
-0.063052
-0.041911
-0.078080
-0.072087
-0.029651
-0.023247
-0.047585
-0.069730
-0.058264
-0.052322
-0.082916
-0.074349
-0.035413
-0.043337
-0.029204
-0.060258
-0.027351
-0.007915
-0.042047
-0.060970
-0.061077
-0.015528
-0.026214
-0.032709
0.003249
-0.065140
-0.073688
-0.035608
-0.056763
-0.058801
-0.040844
-0.032503
-0.062282
-0.052664
-0.024751
-0.043092
-0.071444
-0.050369
-0.064820
-0.042817
-0.008581
-0.085414
-0.032785
-0.028937
-0.041049
-0.029498
-0.083474
-0.049076
-0.082355
-0.071325
-0.048564
-0.068659
-0.046023
-0.053681
-0.028571
-0.062776
-0.044789
-0.038724
-0.030311
-0.027100
-0.017847
-0.017727
-0.019869
-0.038675
-0.009557
-0.051253
-0.004518
-0.085977
-0.010225
-0.047284
-0.034385
-0.038998
-0.022073
-0.048276
-0.054168
-0.041107
-0.053864
-0.051532
-0.071189
-0.085743
-0.051360
-0.034904
-0.068673
-0.023939
-0.030362
-0.052381
-0.063127
-0.033996
-0.031149
-0.048863
-0.031882
-0.053395
-0.024734
-0.003332
-0.038166
-0.035153
-0.020967
-0.057926
-0.026583
-0.030226
-0.039020
-0.044633
-0.049615
-0.027431
-0.024335
-0.051701
-0.031265
-0.065353
-0.047705
-0.038362
-0.018618
-0.041666
-0.037058
-0.036602
-0.013095
-0.066885
-0.058551
-0.069651
-0.020311
-0.046276
0.006773
-0.053931
-0.063167
-0.000759
-0.042796
-0.005416
-0.049555
-0.024195
-0.045308
-0.020728
-0.049695
-0.086794
-0.032660
-0.029867
-0.010562
-0.042615
-0.033272
-0.046913
-0.051148
-0.000522
-0.042157
-0.026960
-0.041234
-0.027750
-0.031169
-0.015674
0.012129
-0.016722
-0.004931
0.038791
0.009014
0.003401
0.012871
0.040333
0.062045
0.076494
0.113036
0.086555
0.121107
0.098615
0.140621
0.099503
0.096150
0.026082
0.027642
0.035450
0.016588
0.045412
0.023441
0.015975
-0.038004
-0.038488
-0.099248
-0.122514
0.004521
0.497906
0.948821
0.574792
0.094607
-0.083722
-0.165612
-0.189755
-0.171599
-0.133764
-0.084617
-0.056047
-0.070541
-0.034423
-0.059226
-0.059599
-0.040986
-0.048512
-0.043978
0.009949
0.000742
0.001635
0.013374
-0.012262
0.028084
0.057280
0.033596
0.080624
0.096002
0.119980
0.109704
0.127002
0.156829
0.186876
0.182898
0.179466
0.187507
0.189563
0.205086
0.237760
0.237392
0.211342
0.206977
0.199672
0.219566
0.178710
0.150921
0.170874
0.118919
0.133249
0.112194
0.127845
0.084695
0.088412
0.055523
0.034608
0.047922
0.016626
0.028670
0.026091
-0.025574
0.038888
0.000371
-0.021549
-0.039909
-0.007291
-0.022354
-0.064889
-0.014272
-0.052068
-0.038080
-0.034829
-0.062353
-0.026299
-0.049243
-0.022864
-0.061970
-0.016448
-0.065064
-0.028555
-0.058309
-0.028909
-0.005629
-0.059785
-0.031493
0.006799
-0.033922
-0.066058
-0.039785
-0.047993
-0.020687
-0.016357
-0.046208
-0.034700
-0.042606
-0.014050
-0.019439
-0.051967
-0.042025
-0.021342
-0.016054
-0.007021
-0.046407
0.008770
-0.032585
-0.031281
-0.067410
-0.036592
-0.073076
-0.016428
-0.008855
-0.054093
-0.036343
-0.046739
0.004821
-0.036062
-0.016139
-0.007742
-0.008469
-0.026958
-0.051769
-0.075817
-0.057571
-0.039581
-0.043675
-0.060808
-0.067365
-0.048765
-0.043865
0.008814
-0.056047
-0.050057
-0.018014
-0.003691
-0.007230
-0.031329
-0.033948
-0.028023
-0.051212
-0.027256
-0.019716
-0.045802
-0.083800
-0.062704
-0.031242
-0.025349
-0.015873
-0.035662
-0.019763
-0.048019
-0.014260
-0.022748
-0.001225
-0.039693
-0.051539
-0.048094
-0.027394
0.012494
-0.021247
-0.022993
-0.049534
-0.018630
0.004532
-0.031537
-0.059247
-0.038807
-0.011114
-0.030696
-0.048526
-0.043431
-0.036797
-0.056526
-0.036660
-0.038507
-0.045913
-0.013429
-0.022516
-0.022911
-0.037883
0.002085
-0.032080
-0.050269
-0.019657
-0.032145
-0.057896
-0.039117
-0.056690
-0.006394
-0.045684
-0.033057
-0.038500
-0.007627
-0.025072
-0.029812
-0.024858
-0.022294
-0.046711
-0.001582
-0.004670
-0.027292
-0.035013
-0.045320
-0.070449
-0.051619
-0.016958
-0.035389
-0.041041
-0.045310
-0.013941
-0.033303
-0.006650
-0.017523
-0.047349
0.021181
0.018276
-0.021543
0.011034
0.031000
0.031950
0.087629
0.065114
0.100360
0.073337
0.128595
0.107645
0.124264
0.125029
0.098726
0.107615
0.065306
0.053558
0.085039
0.048080
0.039267
0.065515
-0.003936
0.003823
0.002758
-0.048924
-0.085472
-0.098326
-0.034877
0.569143
0.957961
0.582804
0.123092
-0.105166
-0.135380
-0.184951
-0.133055
-0.114336
-0.053734
-0.036621
-0.042589
-0.012114
-0.023480
0.000795
-0.025606
-0.007782
0.006737
-0.026784
0.025122
0.024093
0.039193
0.020133
0.029680
0.075901
0.084551
0.103827
0.071759
0.069519
0.136261
0.111554
0.145608
0.147874
0.186116
0.198575
0.206539
0.241260
0.225549
0.215402
0.204393
0.246779
0.227508
0.229831
0.220868
0.206117
0.223478
0.180908
0.182308
0.136233
0.167435
0.089540
0.136005
0.073152
0.071110
0.093710
0.072475
0.025631
0.058246
0.009485
0.007218
0.050500
-0.003415
0.028202
-0.015239
-0.034272
-0.031416
0.019295
0.010313
-0.027088
-0.038206
0.007148
-0.002508
-0.015396
-0.018894
-0.036855
-0.011717
-0.039930
-0.012268
-0.024354
-0.050007
-0.005137
-0.042559
-0.023697
-0.030933
-0.002044
-0.042815
-0.037161
-0.063696
-0.053140
0.001050
-0.002221
-0.028674
-0.008224
0.006426
0.011196
-0.023686
0.005779
-0.034968
-0.033888
-0.030771
-0.019025
-0.025669
0.000164
-0.010451
-0.031884
-0.025128
-0.005092
-0.006350
-0.004020
-0.009042
-0.053692
0.001691
0.012637
-0.033882
-0.020537
0.003158
0.006708
-0.017055
-0.028944
-0.018108
0.003000
-0.050450
-0.065132
0.007688
0.004837
0.004636
-0.031763
-0.030158
-0.025823
-0.019245
-0.011604
0.003002
0.006325
-0.003288
0.020797
0.007640
0.002280
-0.021041
-0.030990
-0.011817
-0.017464
-0.008466
-0.023033
-0.043607
-0.042610
-0.041447
-0.025597
-0.007958
-0.022031
-0.014008
-0.022576
-0.005006
-0.005782
0.011380
-0.009335
-0.030843
-0.037912
-0.034414
-0.003566
-0.018484
-0.035522
-0.028030
-0.050611
-0.026905
-0.007725
-0.033524
0.021408
-0.024736
-0.052673
-0.015932
-0.043426
-0.052631
-0.003193
-0.027414
-0.019792
-0.006448
-0.061458
0.015217
0.004500
-0.003023
-0.023863
-0.007323
-0.022134
-0.030906
-0.009794
-0.012662
-0.014465
-0.019362
0.013055
-0.011600
-0.004313
0.000852
-0.012666
-0.030870
-0.039367
0.002088
-0.037670
0.001355
0.019887
0.031085
-0.004936
-0.019417
-0.003521
-0.000278
-0.020641
-0.038914
-0.013345
-0.028880
0.037985
-0.017375
0.007578
0.014704
-0.012008
0.022286
0.027983
0.034115
0.077482
0.052962
0.077884
0.081031
0.101885
0.148369
0.151181
0.141535
0.147829
0.157848
0.104106
0.116044
0.122092
0.103353
0.075596
0.038338
0.068532
0.068577
-0.015353
0.001887
0.011867
-0.010967
-0.061148
-0.125004
0.018222
0.535639
0.938596
0.555597
0.111224
-0.091134
-0.148617
-0.176847
-0.122472
-0.060658
-0.046736
-0.014909
-0.018285
-0.003215
0.017962
0.013816
0.008773
-0.000729
0.015974
0.027805
0.021404
0.027688
0.015679
0.039310
0.063370
0.051880
0.053433
0.071336
0.109730
0.112602
0.136048
0.143703
0.161053
0.203034
0.169053
0.204384
0.179366
0.191654
0.242876
0.277090
0.253893
0.265599
0.235133
0.206771
0.206882
0.228646
0.207296
0.180094
0.195353
0.154247
0.183557
0.131470
0.119270
0.071496
0.046168
0.068370
0.043177
0.067887
0.062168
0.016092
0.011669
0.027682
0.014442
0.007625
-0.015684
-0.009499
0.015452
-0.005356
0.010657
-0.010010
0.012463
-0.047213
-0.012049
-0.035340
0.016953
0.024191
-0.001940
-0.003493
-0.004341
0.004812
-0.039936
-0.004986
-0.009718
0.005116
0.000779
0.017486
-0.029857
-0.010878
0.042705
-0.017849
0.025627
-0.002238
0.006096
-0.048003
0.023649
0.016023
-0.004100
0.006685
-0.000676
-0.000043
-0.021046
-0.006915
-0.019999
-0.005729
-0.003210
-0.016215
-0.035608
-0.007240
-0.016903
-0.007182
-0.015980
-0.007123
-0.020513
0.013585
0.022979
0.001797
0.005180
-0.018374
0.020008
-0.007099
-0.001973
-0.035155
-0.005649
-0.005431
0.022923
-0.010926
0.010718
0.012290
0.010893
-0.007412
0.022846
-0.017771
-0.016338
-0.006036
0.007211
-0.004857
0.008284
0.008738
0.002245
0.014619
0.001902
0.007709
0.000216
0.011287
-0.017884
0.001803
-0.018387
0.028655
0.007171
-0.005018
0.001481
-0.004953
0.002255
-0.019359
-0.031147
0.034849
-0.015050
0.017244
-0.021364
-0.028787
0.023163
0.009645
-0.010663
0.009152
-0.020504
-0.038548
0.028357
-0.004142
0.018751
0.019259
-0.014536
-0.007941
0.023037
-0.015070
0.016632
0.010818
-0.000739
0.012210
0.005659
0.009828
0.023828
-0.011933
0.033329
0.006450
0.030761
0.018815
0.012571
-0.010257
0.006266
0.021172
0.019162
-0.000577
-0.027190
-0.027170
-0.001566
0.011357
-0.003738
0.015242
-0.003744
-0.019607
0.007135
-0.022994
-0.018125
0.007531
-0.007615
0.005277
0.006221
0.018369
0.004675
-0.008929
0.017411
0.007167
-0.021682
0.022402
0.049018
-0.019587
0.003297
0.013757
0.049093
0.019696
0.056551
0.047139
0.053384
0.120326
0.111717
0.129458
0.160950
0.162894
0.136377
0.135661
0.129936
0.143364
0.149751
0.132373
0.110207
0.099203
0.059138
0.057829
-0.021268
0.014201
0.000407
0.029328
-0.095117
-0.111477
0.039243
0.539892
0.975249
0.567202
0.104470
-0.074256
-0.146195
-0.153024
-0.114389
-0.086195
-0.033220
-0.004649
0.010883
0.019057
0.011756
0.014752
0.023128
-0.008410
0.033330
0.048853
-0.018705
0.038801
0.055830
0.041917
0.109639
0.065860
0.089640
0.086741
0.106349
0.125065
0.120048
0.183083
0.155101
0.199490
0.189402
0.255504
0.235750
0.265479
0.253082
0.281845
0.272817
0.257360
0.291997
0.288230
0.189539
0.247696
0.203059
0.214824
0.224430
0.180792
0.167523
0.125228
0.134599
0.151080
0.106735
0.100877
0.070504
0.080869
0.048959
0.057658
0.057866
0.046049
0.069427
0.050794
0.019059
0.015116
0.005664
-0.015325
-0.021879
0.009133
0.010075
0.017993
-0.009103
-0.006708
0.000836
0.031541
0.013070
0.040578
-0.014309
0.010686
0.033532
0.014120
-0.005186
0.043903
0.025007
0.030335
-0.001155
0.006423
0.010935
0.029470
-0.011242
0.043539
0.020275
-0.008296
0.019811
0.012153
0.040786
0.005064
-0.001907
0.019514
0.037661
-0.012939
-0.036829
0.011438
0.036937
-0.008218
-0.011026
-0.011409
0.010864
-0.002410
0.044133
-0.000674
0.039423
0.014894
0.000216
-0.001579
0.012095
0.035414
0.026054
0.030824
0.041560
0.037099
-0.005240
-0.000545
0.007504
-0.001193
0.003493
0.021408
-0.001537
0.027183
0.001832
0.038755
0.017881
0.039736
0.011025
0.043657
-0.005523
-0.033876
0.011758
0.006713
0.017141
-0.008847
0.026953
0.010671
-0.014031
0.044657
-0.020397
0.008619
0.006700
-0.002151
0.009252
-0.024092
-0.013299
-0.018061
0.009151
0.027278
0.002034
-0.003854
0.038572
0.045334
-0.040041
0.006736
0.013257
-0.009740
0.021684
0.004748
0.018217
0.029044
0.004418
0.017297
0.023969
-0.005139
-0.004168
0.026173
-0.010842
-0.007898
-0.007030
0.024036
0.040984
0.008298
0.023002
0.008199
0.002044
0.009015
0.009738
0.009975
0.035626
0.005934
0.017765
0.027543
0.000299
0.037003
0.031470
-0.006876
-0.015164
0.000346
0.008178
0.000678
0.019700
-0.003001
0.005025
0.029435
0.029373
0.013881
0.036691
0.029585
0.005313
-0.012371
0.019662
0.001722
0.001776
0.036282
0.017789
0.011420
0.007972
-0.001578
-0.006367
0.022585
0.012430
0.048435
0.052035
0.001510
0.015278
-0.007556
0.026478
0.065304
0.050857
0.047486
0.060898
0.057538
0.045285
0.116193
0.098980
0.089588
0.137461
0.137972
0.147764
0.181966
0.153631
0.147682
0.162609
0.144809
0.125746
0.149580
0.107251
0.104363
0.087232
0.064317
0.056349
0.010624
0.047333
-0.041205
-0.037290
-0.102468
0.074251
0.563851
1.025738
0.592307
0.159717
-0.049537
-0.116688
-0.120134
-0.108249
-0.067222
-0.027809
-0.008432
0.030530
0.015425
0.026879
0.015737
0.035231
0.050436
0.066202
0.033236
0.061692
0.070087
0.083100
0.055080
0.089071
0.107621
0.098847
0.104228
0.157949
0.134814
0.179534
0.157779
0.197776
0.222875
0.191879
0.213475
0.227020
0.285670
0.250306
0.254398
0.292772
0.273771
0.277015
0.231094
0.260116
0.237642
0.263623
0.264405
0.217531
0.162370
0.187089
0.153525
0.166916
0.134026
0.116918
0.096867
0.076245
0.068531
0.067395
0.050748
0.077010
0.047518
0.010783
0.021847
0.033036
0.038158
0.011708
0.025322
0.003997
0.027037
0.037130
-0.002723
0.007347
0.039814
0.034796
0.064705
0.016574
0.019250
0.015221
-0.024330
0.020327
0.050424
0.026353
0.008865
0.010986
0.039003
0.026810
0.020439
0.005973
0.016698
0.000321
-0.007968
0.034373
0.024235
0.028132
0.027362
-0.007271
0.013405
0.009800
0.022098
0.022693
0.022364
0.035626
0.004892
0.037393
0.006404
0.016902
0.063260
0.024385
0.026032
0.030432
0.024524
0.004848
0.002998
0.031410
0.034641
0.025763
0.007979
0.020710
0.004204
0.047050
0.034361
0.034591
0.013645
0.028998
0.033104
0.029997
0.064777
0.011911
0.024595
0.043219
0.035110
0.004688
-0.005669
0.040566
0.006097
0.045880
0.026340
0.030404
0.032621
0.032714
0.031193
0.005896
0.030272
0.038018
0.001831
0.031390
0.018217
0.057440
0.021278
0.041701
0.054926
0.062802
0.060362
-0.002505
0.014699
0.032463
0.035137
0.014858
0.076568
0.032928
0.041896
0.036888
0.023655
0.069758
0.041885
0.073886
-0.007825
0.017857
0.017054
0.002341
0.059178
0.026630
0.044988
0.067931
0.015753
0.026942
0.038309
0.052866
0.061849
0.047493
0.011610
-0.023783
0.030939
0.035825
0.039338
0.045204
0.022235
0.005190
0.018284
0.033978
0.010904
0.036289
0.045752
0.010171
0.026072
0.016902
0.040421
0.025325
0.005558
0.015102
0.060994
0.038843
0.040053
0.003916
0.009231
0.030714
0.048158
-0.000971
0.026060
0.063799
0.033753
0.045491
0.042266
0.095460
0.107321
0.113691
0.135815
0.125947
0.145799
0.171127
0.204425
0.196591
0.180884
0.162478
0.126432
0.158466
0.127483
0.133202
0.072392
0.078389
0.115060
0.044422
0.021697
0.068244
0.024386
-0.028554
-0.054060
0.092877
0.602424
1.048188
0.640612
0.167005
-0.073923
-0.071022
-0.127720
-0.129267
-0.038592
-0.020065
0.017142
0.036114
0.035796
-0.002309
0.051336
0.026487
0.041132
0.030439
0.088450
0.089194
0.062344
0.111673
0.095794
0.102550
0.099700
0.122604
0.122011
0.157331
0.132445
0.101403
0.151720
0.222399
0.188526
0.224489
0.255968
0.230856
0.272193
0.277499
0.256952
0.301694
0.283651
0.265375
0.280687
0.231187
0.228199
0.238965
0.219871
0.245288
0.242895
0.159508
0.140609
0.142685
0.134903
0.132638
0.124365
0.075127
0.102458
0.093094
0.089260
0.031148
0.106857
0.044350
0.003327
0.022726
0.056472
0.042385
0.021767
0.048663
0.040660
0.036152
0.061790
0.034112
0.016156
0.016792
0.004120
0.020857
0.039449
0.051556
-0.013959
0.026302
0.034415
0.029739
0.001431
0.030716
0.012597
0.013764
0.024520
0.051981
0.000487
0.038298
0.047802
0.015595
0.053258
0.082755
0.045068
0.055341
0.041485
0.048315
0.023312
0.052293
0.056252
0.025867
0.001511
0.032851
-0.016162
-0.000222
0.054913
0.023266
0.067150
0.023570
0.026090
0.045231
0.049274
0.063318
0.040315
0.039650
0.043159
0.047617
0.015200
0.064018
0.029726
0.018704
0.029418
0.054651
0.043912
0.039217
0.013697
0.023598
0.052259
0.059838
0.035915
0.036716
0.016066
0.035378
0.046190
0.035234
0.047375
0.016756
0.026925
0.022159
0.030383
0.046683
0.035181
0.046007
0.031672
0.042656
0.016955
0.047178
0.040936
0.043838
0.032413
0.036777
0.055229
0.061272
0.054882
0.030677
-0.001077
0.023840
0.050176
0.067477
0.024629
0.030008
0.049937
0.025426
0.040988
0.017093
0.063978
0.039783
0.015139
0.050675
0.044989
0.030165
0.007266
0.071742
0.049080
0.048085
0.024255
0.015355
0.023593
0.060714
0.037412
0.047183
0.035195
0.026994
0.039489
0.047575
0.054415
0.057058
0.070075
0.036102
0.050677
0.064437
0.027183
0.033904
0.040672
0.028636
0.054247
0.032990
-0.002591
0.037701
0.005713
0.057374
0.053050
0.021577
0.011354
0.061948
0.045948
0.058666
0.103220
0.108471
0.135056
0.139722
0.148558
0.132924
0.196573
0.177424
0.196830
0.199965
0.175613
0.166104
0.159353
0.158037
0.163050
0.119764
0.119073
0.096755
0.077727
0.079598
0.081389
0.037095
0.018309
-0.033938
-0.053359
0.087816
0.563349
1.039720
0.649654
0.173198
-0.014040
-0.094032
-0.101698
-0.094204
-0.016001
0.022154
0.000432
0.056700
0.016902
0.039390
0.038034
0.078960
0.067573
0.047896
0.044191
0.077956
0.078288
0.112377
0.100676
0.047059
0.111607
0.134176
0.152995
0.134580
0.137528
0.176832
0.189279
0.232873
0.240221
0.248540
0.258495
0.283779
0.255651
0.295338
0.329966
0.302604
0.295893
0.268022
0.300400
0.273032
0.277811
0.210705
0.228124
0.219331
0.179264
0.192727
0.184528
0.170458
0.155499
0.123543
0.096155
0.122706
0.098937
0.141048
0.074858
0.061355
0.048235
0.031447
0.046695
0.059321
0.074636
0.050934
0.035026
0.048533
0.025553
0.018971
0.020438
0.008406
0.047483
0.052297
0.053363
0.008558
0.041368
0.051007
0.036974
0.057193
0.057144
0.063267
0.036444
0.059808
0.069912
0.066024
0.058536
0.078301
0.074769
0.024939
0.024289
0.014352
0.037489
0.044176
0.048381
0.030333
0.023923
0.038319
0.071656
0.044998
0.053435
0.010415
0.011991
0.031308
0.042919
0.054722
0.045093
0.060021
-0.004608
0.033695
0.025450
0.047693
-0.009940
0.053245
0.048715
0.069998
0.050934
0.042729
0.019093
0.047991
0.037564
0.006646
0.046138
0.025795
0.062144
0.033500
0.053669
0.041855
0.023020
0.008822
0.065583
0.014180
0.033392
0.049842
0.045394
0.011898
0.036506
0.047589
0.031302
0.074710
0.062495
0.031069
0.000248
0.034148
0.026197
0.023488
0.046406
0.051280
0.037686
0.086943
0.031298
0.031993
0.051608
0.063019
0.063258
0.044695
0.051852
0.026999
0.025034
0.031221
0.042412
0.007111
0.020979
0.068048
0.021087
0.043057
0.091799
0.030636
0.063048
0.041064
0.081586
-0.013242
0.049960
0.029069
0.044624
0.015219
0.056648
0.033979
0.027026
0.031614
0.061580
0.074316
0.027468
0.028121
0.020066
0.060871
0.022189
0.044515
0.054006
0.014515
0.020638
0.041493
0.071210
0.046387
0.075522
0.020728
0.033108
0.083148
0.056891
0.034069
0.024846
0.048160
0.041238
0.021085
0.042991
0.046034
0.048347
0.052336
0.047704
0.028497
0.045480
0.050716
0.025257
0.037661
0.024990
0.039501
0.043028
0.080305
0.038575
0.052024
0.036135
0.049766
0.034407
0.051113
0.056631
0.055918
0.114049
0.085085
0.145307
0.099802
0.113954
0.147423
0.170258
0.197071
0.168407
0.209090
0.202545
0.176617
0.154941
0.149878
0.147006
0.156571
0.138195
0.152419
0.115058
0.104420
0.089610
0.093368
0.044591
0.045693
0.036112
-0.035625
0.097990
0.620787
1.065965
0.658475
0.176958
-0.068742
-0.104810
-0.110738
-0.052540
-0.050161
0.007731
0.031589
0.035096
0.043870
0.037621
0.072459
0.085676
0.059071
0.059118
0.069620
0.091784
0.111471
0.061135
0.112473
0.109542
0.120507
0.137925
0.138833
0.171310
0.168223
0.180795
0.242842
0.221500
0.230304
0.273272
0.256823
0.276530
0.258268
0.293703
0.264373
0.291017
0.279594
0.294811
0.254745
0.258120
0.269517
0.274819
0.235604
0.214630
0.195543
0.178892
0.199470
0.198153
0.180299
0.134838
0.119764
0.149685
0.079333
0.094863
0.120632
0.109277
0.081536
0.066386
0.044655
0.056256
0.065806
0.064224
0.083785
0.025042
0.043683
0.036463
0.018446
0.013450
0.047352
0.020909
0.040236
0.034209
0.024908
0.049023
0.033428
0.072424
0.045118
0.075014
0.053799
0.043302
0.086508
0.036902
0.062171
0.049402
0.055040
0.097136
0.055205
0.021832
0.052872
0.035271
0.078233
0.084545
0.045378
0.080844
0.045950
0.056970
0.076901
0.068964
0.048284
0.063513
0.038894
0.048702
0.054556
0.019124
0.039747
0.040054
0.026315
0.060845
0.054493
0.051755
0.075957
0.077378
0.028368
0.019794
0.051860
0.031748
0.005579
0.024272
0.053575
0.059278
0.073479
0.018873
0.013395
0.042860
0.032639
0.031993
0.040917
0.063650
0.037287
0.044997
0.068808
0.039509
0.037870
0.026213
0.037407
0.044950
0.062957
0.019966
0.022353
0.044209
0.041431
0.009043
0.071013
0.066333
0.069998
0.045523
0.070130
0.065103
0.024903
0.038975
0.060074
0.026538
0.041964
0.037555
0.045730
0.092593
0.053995
0.061533
0.053776
0.025555
0.054007
0.051080
0.033691
0.020343
0.046731
0.056284
0.058941
0.059669
0.027558
0.070106
0.037569
0.075715
0.044371
0.063242
0.080589
0.026810
0.072746
0.053768
0.051990
0.030550
0.068486
0.023040
0.063618
0.048608
0.064639
0.052064
0.033917
0.043083
0.015451
0.012480
0.067379
0.086460
0.060623
0.020158
0.067706
0.060171
0.053070
0.045050
0.052142
0.052641
0.062488
0.053060
0.045999
0.054391
0.076624
0.034257
0.066562
0.063293
0.043874
0.094045
0.067898
0.124892
0.113514
0.115539
0.167567
0.157529
0.191449
0.196967
0.162576
0.239701
0.186779
0.207789
0.182893
0.156643
0.155340
0.112390
0.120247
0.137559
0.076597
0.103255
0.066993
0.091223
0.061644
-0.040059
-0.077174
0.106539
0.614065
1.013643
0.640549
0.195184
-0.049141
-0.059808
-0.073828
-0.122260
-0.053419
-0.027154
0.053140
0.060461
0.031703
0.012895
0.077994
0.092352
0.080620
0.065662
0.102340
0.055788
0.106099
0.109930
0.090659
0.070714
0.141036
0.131719
0.127433
0.167882
0.148141
0.183667
0.242052
0.235915
0.256730
0.230224
0.247543
0.251348
0.281851
0.316010
0.316684
0.301394
0.311857
0.298160
0.293011
0.291268
0.238350
0.252305
0.236038
0.286561
0.194063
0.218153
0.160897
0.170654
0.158323
0.162338
0.133344
0.133465
0.095189
0.125706
0.101018
0.091396
0.051148
0.108613
0.067611
0.030571
0.094579
0.029946
0.043133
0.069110
0.060125
0.035025
0.080760
0.071079
0.061120
0.078985
0.041970
0.045591
0.055824
0.052074
0.049304
0.091233
0.013575
0.079264
0.043399
0.029412
0.076133
0.025308
0.044718
0.048534
0.092174
0.037483
0.039939
0.076734
0.025663
0.049779
0.038743
0.034150
0.057125
0.042320
0.059591
0.039577
0.045204
0.056684
0.044227
0.050174
0.084950
0.072757
0.039634
0.010460
0.044460
0.079447
0.037727
0.037186
0.090322
0.079540
0.036859
0.015720
0.083343
0.086844
0.019529
0.021719
0.072816
0.025166
0.033488
0.078858
0.052948
0.036654
0.038164
0.038156
0.079814
0.058306
0.059209
0.051662
0.038637
0.043596
0.082119
0.010182
0.046153
0.039932
0.068267
0.016796
0.028663
0.042367
0.065705
0.028217
0.055290
0.046407
0.046200
0.027146
0.036298
0.030485
0.050488
0.059783
0.071804
0.040815
0.017103
0.090629
0.085575
0.085066
0.010713
0.003858
0.052390
0.045357
0.032824
0.018378
0.056663
0.025493
0.061589
0.035994
0.049584
0.088095
0.037551
0.030673
0.074050
0.057986
0.054810
0.069208
0.037055
0.063107
0.070400
0.081005
0.022214
0.038449
0.048985
0.092968
0.063305
0.060148
0.046529
0.010109
0.078946
0.044258
0.048069
0.054134
0.036729
0.035546
0.010970
0.059636
0.086190
0.069269
0.040535
0.040661
0.050346
0.073211
0.032748
0.034454
0.052665
0.054398
0.052596
0.035616
0.061655
0.039576
0.038627
0.027051
0.050974
0.049643
0.066518
0.067759
0.068064
0.117853
0.092945
0.132613
0.110557
0.123163
0.159408
0.210956
0.189997
0.214561
0.207802
0.187330
0.196141
0.184495
0.206605
0.135428
0.139118
0.096863
0.125622
0.091337
0.077609
0.062744
0.050717
0.035860
0.010124
-0.031832
0.072428
0.591864
1.041918
0.666642
0.217232
-0.048809
-0.093221
-0.085967
-0.107859
-0.055731
-0.028073
0.046892
0.064536
0.033353
0.022953
0.054653
0.037295
0.047122
0.039929
0.079816
0.101664
0.073597
0.100807
0.105030
0.136904
0.157828
0.119449
0.154507
0.187964
0.162863
0.182565
0.224152
0.261882
0.211583
0.270685
0.253978
0.243664
0.293064
0.285474
0.308868
0.310280
0.279834
0.312119
0.309621
0.309659
0.285429
0.273571
0.250275
0.237559
0.180337
0.205824
0.163326
0.181304
0.153292
0.125656
0.145825
0.134357
0.095756
0.085227
0.081437
0.068352
0.098965
0.059050
0.076185
0.026256
0.069232
0.075918
0.070927
0.049247
0.051010
0.050103
0.053684
0.041575
0.049993
0.026776
0.042995
0.046175
0.070774
0.034885
0.048734
0.053147
0.056131
0.024725
0.048329
0.057980
0.060082
0.034082
0.030310
-0.003873
0.029412
0.031175
0.043371
0.050310
0.058337
0.061475
0.054138
0.031564
0.028172
0.085889
0.057392
0.083959
0.023047
0.044382
0.000084
0.061311
0.081549
0.038518
0.084991
0.041069
0.034543
0.044438
0.042914
0.027385
0.008185
0.027135
0.034953
0.057457
0.011181
0.061459
0.019130
0.031314
0.022132
0.049745
0.052469
0.092707
0.063956
0.031011
0.046037
0.048040
0.052525
0.051775
0.054959
0.054646
0.076959
0.024922
0.054207
0.060170
0.034710
0.049090
0.063924
0.066669
0.047402
0.067225
0.090625
0.075999
0.025013
0.041786
0.059770
0.080898
0.060059
0.049998
0.005019
0.040287
0.056119
0.044203
0.050579
0.055544
0.056266
0.077835
0.040883
0.054611
0.070557
0.010074
0.063579
0.056969
0.039514
0.034384
0.014376
0.051735
0.035899
0.045471
0.032164
0.016241
0.077885
0.055296
0.074195
0.018495
0.083251
0.049440
0.059570
0.052817
0.043246
0.021025
0.009881
0.058225
0.029609
0.057302
0.019989
0.025383
0.013061
0.058665
0.056309
0.031851
0.037186
0.037296
0.054663
0.007287
0.023859
0.083303
0.055203
0.025337
0.030074
0.055756
0.050692
0.004468
0.078535
0.046733
0.018322
0.018136
0.058366
0.039606
0.064301
0.020890
0.046071
0.017209
0.045904
0.051032
0.044124
0.095144
0.017954
0.063740
0.031148
0.042987
0.030266
0.052666
0.072127
0.045100
0.081891
0.075251
0.067637
0.092625
0.074794
0.104015
0.118014
0.145584
0.178850
0.171189
0.182362
0.218462
0.236332
0.173951
0.177481
0.145674
0.170989
0.134149
0.127917
0.117329
0.116423
0.078482
0.029927
0.044732
0.052748
0.012688
-0.034225
-0.055622
0.055053
0.627311
1.046778
0.680694
0.173900
-0.031572
-0.073422
-0.107313
-0.067206
-0.049874
0.019316
0.044079
0.053078
0.035086
0.040758
0.050084
0.086307
0.082798
0.055339
0.045912
0.032904
0.110287
0.075473
0.110994
0.088134
0.134654
0.123260
0.133120
0.153634
0.175787
0.182569
0.203165
0.200736
0.220947
0.207744
0.248077
0.265699
0.277468
0.284535
0.263344
0.290446
0.279848
0.332216
0.307663
0.244608
0.240669
0.244767
0.205434
0.235057
0.188072
0.168279
0.196206
0.198449
0.156560
0.139240
0.107922
0.100640
0.083508
0.122343
0.061259
0.099472
0.076330
0.034483
0.067213
0.049710
0.036581
0.018002
0.043783
0.003837
0.054051
0.036728
0.035200
0.050444
0.048013
0.060600
0.028270
0.052346
0.023288
0.049626
0.048911
0.005984
0.029751
0.024154
0.054335
0.031697
0.024783
0.036912
0.033605
0.039045
0.056544
0.017592
0.036313
0.049926
0.030636
0.062373
0.042322
0.058940
0.048687
0.031676
0.068630
0.070285
0.062283
0.041902
0.030274
0.048736
0.043449
0.015068
0.041684
0.063736
0.051620
0.039466
0.068202
0.030941
0.036661
0.039214
0.060769
0.021599
0.024531
0.051744
0.030139
0.082271
0.012219
0.000987
0.044170
0.038761
0.037534
0.031719
0.039698
0.043890
0.002896
0.027409
0.067839
0.023687
0.041639
0.037717
0.047581
0.047877
0.053600
0.061308
0.042515
0.021676
0.046366
0.046397
0.032995
0.047955
0.031236
0.024390
0.066297
0.046720
0.052323
0.031306
0.046652
0.022978
0.022358
0.027930
0.030539
0.014241
0.037670
0.053072
0.041816
0.029748
0.034630
0.025980
0.025154
0.042608
0.030509
0.025072
0.038638
0.011225
0.033027
0.044075
0.043656
0.065704
0.053642
0.023480
0.001179
0.020126
0.074268
0.029965
0.061811
0.028049
0.014575
0.062156
0.032598
0.038731
-0.011423
0.032242
0.081613
0.041422
0.008707
0.055927
0.042097
0.077641
0.047335
-0.017324
0.001386
0.068974
0.032449
0.013129
0.041314
0.006794
0.066181
0.018435
0.047964
0.038422
0.027095
0.046109
0.006855
-0.005437
0.035514
0.029500
0.039190
0.041224
0.063268
0.044137
-0.018372
0.006324
0.040170
0.006342
0.042393
0.059937
0.064862
0.104351
0.104877
0.092741
0.093471
0.133438
0.122921
0.124217
0.139366
0.187479
0.193443
0.177524
0.170481
0.159196
0.145786
0.171827
0.143198
0.121131
0.130406
0.080073
0.065877
0.085001
0.063602
0.013395
0.018507
-0.018399
-0.053323
0.065728
0.549625
1.069598
0.604249
0.167687
-0.016820
-0.082853
-0.148263
-0.144517
-0.059050
-0.038877
0.045426
0.019339
0.017664
0.002010
0.003913
0.045669
0.060979
0.022442
0.076408
0.055653
0.070403
0.059003
0.082774
0.093280
0.110264
0.146453
0.120183
0.142595
0.191623
0.192342
0.194081
0.239551
0.205775
0.273133
0.251339
0.257271
0.285264
0.315966
0.280799
0.273257
0.267488
0.279735
0.302070
0.263160
0.241073
0.210005
0.224024
0.212972
0.194498
0.169791
0.180854
0.193095
0.172966
0.107974
0.092521
0.131404
0.077569
0.088399
0.073702
0.045963
0.063701
0.052787
0.044588
0.038790
0.039194
0.022801
0.018148
0.023439
0.020013
0.057237
0.023409
0.013124
0.017838
0.004461
0.013119
0.030424
0.030345
0.022967
0.027338
0.007148
-0.017539
0.007678
0.028831
0.060431
0.050975
0.027083
0.024835
0.051970
0.037376
-0.023111
0.027544
0.003206
0.032754
0.007215
-0.003753
0.033617
0.029131
0.059698
-0.013570
0.043484
0.019076
0.015367
0.030762
-0.042060
-0.004922
0.006738
0.035885
0.025917
0.037685
0.039397
0.052322
0.028058
0.043319
0.046254
0.021084
0.042505
0.020277
0.036668
0.003692
0.042418
0.041079
0.038750
0.035935
0.010653
0.011347
0.046049
0.032338
0.048593
0.027299
0.039171
0.038422
0.055216
-0.002237
-0.001173
0.034525
0.050059
0.021344
0.045682
0.030177
0.018125
0.018626
0.023486
0.026122
0.043525
0.016865
0.032491
0.035834
0.009380
0.054443
0.019365
0.030821
0.014811
0.030478
-0.002762
-0.001899
0.061450
0.022996
0.036949
0.005302
0.019972
0.025601
0.012201
0.037963
0.013762
0.026917
0.029969
0.011902
0.015885
0.016669
0.057153
0.023530
0.008215
0.028785
0.012702
0.012706
0.048146
0.041646
0.040014
0.030786
0.003436
0.007458
0.016808
0.013573
0.039390
0.043606
0.044105
0.016028
0.007597
0.032888
-0.043259
0.002306
0.023165
0.040048
0.030471
0.049698
0.017867
0.010365
0.030629
0.017663
0.007404
0.029289
0.038593
0.041592
-0.006426
0.022678
-0.000485
0.038414
0.007920
0.067234
0.033092
0.021206
0.068367
0.012485
0.079933
0.018398
0.041242
0.019436
0.091315
0.069409
0.060817
0.078978
0.076155
0.090552
0.140613
0.118464
0.151806
0.148968
0.144931
0.179200
0.157571
0.159665
0.159568
0.133790
0.140885
0.143968
0.107584
0.117377
0.071850
0.064425
0.066601
0.018226
0.029091
0.022755
-0.010863
-0.066362
0.065579
0.582401
1.034733
0.611698
0.149283
-0.036364
-0.098858
-0.158881
-0.124913
-0.056321
-0.016470
-0.009842
0.024404
-0.014944
0.042726
0.064908
0.036291
0.040266
0.081800
0.052304
0.045797
0.051051
0.096637
0.077403
0.044115
0.089018
0.103254
0.133686
0.139157
0.145029
0.152825
0.162346
0.204644
0.236990
0.207387
0.228387
0.263482
0.208688
0.252265
0.248045
0.257912
0.266669
0.318876
0.273184
0.215046
0.263468
0.228392
0.210141
0.213679
0.210449
0.162103
0.139043
0.137576
0.136389
0.129715
0.078013
0.063221
0.050993
0.054492
0.036460
0.030698
0.057420
0.030530
0.031947
0.035235
-0.002688
0.007299
0.039640
0.012099
0.069832
0.015919
0.009195
-0.026990
0.066628
-0.006303
0.031553
0.031872
0.000524
0.037486
0.006795
0.056257
0.007101
0.028144
0.028088
-0.006441
0.017339
0.011342
0.018353
0.054518
0.005746
0.030523
0.000288
0.012824
0.006171
0.005793
0.008094
0.027808
-0.005060
-0.010071
-0.003667
0.042259
0.020801
0.012974
0.016384
-0.013040
0.027272
0.018099
0.038308
-0.007173
0.027947
0.001623
0.003652
-0.009902
0.031612
0.018139
0.005567
0.027201
0.001971
0.014119
0.030646
0.015282
0.004499
0.016150
-0.008468
0.018201
0.010352
0.006129
-0.012478
-0.020682
0.006919
-0.015868
0.025780
0.027931
-0.018381
0.000630
0.005479
-0.009412
0.025279
0.027518
0.021966
0.007324
0.001303
0.008009
0.028280
0.020492
0.034489
-0.004481
-0.005083
-0.002847
-0.010952
-0.002387
-0.000955
0.008609
-0.000813
0.003827
0.037368
0.035231
0.008630
0.007056
0.017475
0.004268
0.019936
0.043651
-0.009391
0.018622
0.000302
-0.000890
0.006785
0.016053
-0.028900
0.051375
-0.018086
-0.020457
0.037871
0.000064
-0.025215
0.002983
0.021555
-0.034663
0.004516
0.023553
0.003717
0.016788
-0.014383
0.029141
0.010060
-0.009005
0.027007
0.006706
0.017416
-0.012861
-0.010782
0.036550
0.024843
-0.029412
-0.005559
0.039602
0.013975
0.007556
-0.010108
0.061767
0.014651
0.009661
-0.006757
-0.009468
0.013172
0.008918
-0.019279
0.014033
-0.026352
-0.003330
0.010076
0.032793
0.021256
0.005886
0.018287
0.015584
-0.026929
-0.038483
0.020906
0.016152
0.040550
0.047971
0.058478
0.088952
0.109955
0.100685
0.090539
0.063356
0.108901
0.125693
0.130210
0.136336
0.147334
0.129731
0.133487
0.120271
0.126268
0.076634
0.075333
0.101064
0.053099
0.029692
-0.002823
0.015632
0.015992
-0.060891
-0.075098
0.015616
0.549720
0.969915
0.585127
0.163855
-0.059289
-0.120533
-0.133476
-0.158422
-0.082308
-0.025145
-0.050345
-0.016816
0.045896
0.028050
0.022070
0.004356
0.007391
0.006312
0.017008
0.043561
0.020510
0.038929
0.051421
0.089348
0.077107
0.088274
0.095172
0.123126
0.139594
0.136112
0.150734
0.204210
0.190784
0.163044
0.221698
0.220269
0.232322
0.242592
0.238806
0.230953
0.227822
0.295427
0.277089
0.201667
0.219254
0.175232
0.189366
0.194987
0.170851
0.172358
0.126409
0.097556
0.113739
0.090185
0.095923
0.093312
0.051615
0.044801
0.050263
0.057129
0.030578
0.029414
