ecg_amplitude
-0.030268
0.027969
-0.026126
0.006886
-0.019411
0.039518
0.006631
0.024722
-0.000199
0.009446
0.019466
0.023710
0.043263
0.015971
-0.014774
-0.027615
-0.000095
-0.011646
-0.013781
0.005934
-0.007868
-0.000556
-0.000800
-0.026395
0.012397
0.012788
-0.039483
-0.010966
0.023051
-0.004906
-0.023004
0.027601
-0.000493
0.021326
0.005584
0.006119
0.000662
0.033895
-0.008527
-0.023094
-0.010832
0.029486
0.061664
-0.024369
-0.020492
0.031505
-0.013453
-0.016478
-0.028611
-0.013613
-0.015898
0.003913
-0.003212
0.010327
-0.019043
-0.000063
-0.014275
-0.010797
0.007118
-0.014119
-0.002202
-0.020774
-0.018596
-0.007328
-0.020826
-0.009320
-0.028991
-0.017406
0.007392
0.046486
0.041540
-0.000725
0.022232
0.000912
0.008756
-0.009612
-0.041506
-0.018667
-0.005531
-0.010237
0.038075
-0.030673
-0.028990
0.027566
-0.004845
0.025991
0.026658
0.022942
0.013506
-0.078095
0.014290
0.025431
0.045310
0.001269
0.003981
0.012344
0.011617
0.020252
0.000282
0.045588
0.023079
0.025463
-0.014426
0.016101
0.029397
0.020359
-0.023089
0.037962
0.008232
-0.050028
0.022582
0.029822
-0.021059
-0.016254
0.051181
0.022451
-0.007515
-0.025221
0.021261
-0.013516
0.004847
-0.027827
0.008360
-0.002371
0.027224
-0.029483
-0.020670
0.040711
0.028169
0.001874
0.005029
0.006953
0.026534
0.025980
0.030605
0.008348
0.009951
0.026378
0.019608
-0.002699
0.010805
-0.039188
0.017839
-0.005268
0.042301
0.036174
0.044917
-0.032882
-0.041841
0.060498
0.038874
-0.000750
0.072591
-0.011021
0.033336
0.009471
-0.021519
0.008815
0.014863
0.007547
0.036708
-0.004289
0.023871
0.030628
0.002685
0.009763
0.017749
0.030898
0.038099
0.019538
0.003802
-0.013820
-0.003819
-0.026708
0.017335
-0.018273
0.025163
0.014935
0.013487
0.000448
0.048797
0.026639
0.026664
0.043655
0.060608
0.023724
0.042042
-0.020258
0.008029
0.017822
0.018488
0.039094
0.040680
0.013617
0.009724
0.044542
0.025395
0.012636
-0.030634
0.032092
0.019594
0.054996
0.034565
0.014128
0.040622
0.004121
-0.011465
0.034851
-0.032451
-0.007105
0.023580
0.002429
0.020888
0.047497
0.015096
-0.009844
0.083382
0.002555
0.058902
0.086902
-0.030695
0.026716
0.043317
0.018987
0.054171
0.011898
-0.031261
0.000275
0.014007
0.039861
0.018192
-0.025065
-0.011432
0.065256
0.008637
0.033128
0.033713
0.022924
0.021050
0.010451
0.025936
0.001559
-0.005682
0.039693
0.004555
-0.007259
0.008708
0.064617
0.001706
0.013457
-0.016313
-0.011696
0.014899
0.017279
-0.009119
0.028218
0.002449
-0.015093
0.044187
0.007278
0.005123
0.045553
0.075709
0.008646
0.043720
-0.012799
0.027344
0.042042
0.067031
0.050894
0.039749
0.004690
0.002905
0.024106
0.019310
-0.044242
0.035522
-0.005520
0.035822
0.021445
-0.040018
0.019325
0.039598
0.018028
0.003354
-0.005179
0.001130
0.031618
-0.012766
0.059216
0.063423
0.029806
0.024680
0.041123
0.010897
0.025807
0.043053
0.036444
0.026637
0.007907
-0.008266
0.009217
0.057616
0.057772
0.034737
0.087472
0.017213
0.028250
0.007707
0.062653
-0.013969
-0.016436
-0.000308
0.008202
0.018658
0.025928
0.039963
-0.027539
-0.010046
0.041762
0.019426
0.025331
-0.018628
0.083337
-0.011120
0.041359
-0.025152
0.029855
0.002080
0.035101
-0.028861
0.037000
0.011502
0.045125
0.032483
0.089616
0.103329
0.100021
0.118720
0.136757
0.143130
0.125067
0.162648
0.172507
0.166800
0.163287
0.148989
0.149122
0.102273
0.079435
0.131384
0.123092
0.015666
0.066977
0.059846
0.037156
0.035167
-0.064027
-0.083333
0.040560
0.574527
1.014594
0.595457
0.194322
-0.043641
-0.109295
-0.122710
-0.113181
-0.035591
-0.021276
-0.036874
0.040553
0.032830
0.008650
0.038699
0.030696
0.065549
0.053434
0.023756
0.050424
0.010755
0.070217
0.076486
0.132020
0.099190
0.088312
0.127190
0.104566
0.205065
0.177121
0.185546
0.198560
0.215728
0.227654
0.244910
0.257695
0.271293
0.253041
0.263141
0.268313
0.255578
0.284805
0.292599
0.260534
0.256916
0.301352
0.210796
0.245545
0.173362
0.225417
0.154459
0.157802
0.144569
0.145401
0.108265
0.125463
0.078211
0.065480
0.057791
0.071898
0.091337
0.061049
0.061197
0.054658
0.022399
-0.015924
-0.002497
0.042254
0.007437
0.092498
0.028625
-0.007712
0.005126
0.001844
0.011349
0.039935
0.036795
-0.014934
0.030376
0.031620
-0.008842
0.042180
-0.001547
0.011611
0.036152
-0.006938
0.017525
0.006192
0.078441
0.042371
-0.005277
0.010370
0.073004
0.033958
-0.029961
0.035975
0.042029
0.059700
0.037461
0.039716
0.044965
0.040807
0.027635
0.031211
0.006940
0.045444
0.021989
0.021883
0.032781
0.014987
0.036116
0.082760
0.025708
0.000935
0.037155
-0.021009
0.017148
0.023712
0.025269
0.051218
-0.005542
0.010938
-0.006789
0.013588
0.030320
-0.015296
0.004373
0.017508
0.055389
-0.008379
0.039124
0.028039
0.058739
0.027817
0.033270
0.034936
0.022114
0.052622
0.059118
0.060145
0.030217
0.015963
0.016900
0.002032
0.056336
0.025997
0.022004
0.058541
0.021779
-0.031744
0.026696
0.033069
0.111690
-0.001548
0.068149
0.067410
0.062806
0.047293
0.030372
0.043872
0.005595
0.014437
0.065404
-0.005756
0.033111
0.025611
0.047499
0.055614
0.083026
0.044526
0.071074
0.065756
0.092556
0.108562
0.103448
0.106725
0.174913
0.184153
0.182394
0.193376
0.216912
0.161121
0.204865
0.174013
0.143867
0.123885
0.117676
0.138997
0.135123
0.065613
0.108895
0.055344
0.079476
-0.014002
-0.044774
-0.120164
0.064932
0.592939
1.043627
0.649711
0.172550
-0.082960
-0.085676
-0.151075
-0.115991
-0.045361
-0.057846
-0.020495
-0.021843
0.013496
0.054540
-0.030166
0.061881
0.040295
0.074862
0.111417
0.055281
0.075688
0.112180
0.076521
0.133707
0.113383
0.138561
0.123136
0.161872
0.199881
0.173637
0.186050
0.201113
0.210881
0.256975
0.220854
0.262250
0.266614
0.267929
0.241928
0.314845
0.295870
0.255225
0.278486
0.288847
0.279393
0.229941
0.212487
0.222797
0.229258
0.173767
0.176852
0.168346
0.206699
0.111231
0.103837
0.110352
0.093587
0.096802
0.041352
0.070252
0.052775
0.016584
0.048054
0.023961
0.046499
0.002372
0.045632
0.018406
0.041657
0.020404
0.009831
0.021905
0.007158
0.026609
0.025942
0.024027
0.027100
0.039003
0.004263
0.007985
0.042951
0.038475
0.071470
0.039934
0.009795
0.061143
0.061269
0.064603
0.043602
0.034380
0.047250
0.034527
0.033416
0.079668
0.017705
0.044394
0.023340
0.044712
0.039709
0.045801
-0.005179
0.037597
-0.009104
0.046151
0.062351
0.077138
0.086227
0.008283
0.046541
0.037201
0.051069
0.119987
0.089729
0.058673
0.048718
0.022165
0.044419
0.086563
0.064048
0.043458
0.053074
0.029871
0.059956
0.053805
0.039459
0.042226
0.042118
0.004820
0.019657
0.023820
0.034785
0.068823
0.036752
0.028291
0.084019
0.067989
0.040389
0.027923
0.044980
0.013371
0.055700
0.025817
0.045171
0.041923
0.006626
0.038298
0.057841
0.038542
0.036149
0.053052
0.023856
0.045981
0.031483
-0.001826
0.070954
0.068871
0.061488
0.141672
0.079997
0.125458
0.168195
0.121616
0.157052
0.185116
0.149449
0.176760
0.252813
0.145611
0.171067
0.154936
0.162551
0.133235
0.159202
0.106327
0.071813
0.070695
0.099680
0.077156
0.046061
-0.002126
0.040588
-0.024579
0.065706
0.602304
1.056110
0.588700
0.127610
-0.059313
-0.083202
-0.097856
-0.073624
-0.022366
-0.049083
0.022825
-0.003011
0.084837
0.033077
0.063035
0.100096
0.032944
0.037090
0.029693
0.073925
-0.012873
0.078319
0.146536
0.125632
0.137037
0.107926
0.158297
0.156728
0.142057
0.152040
0.219560
0.268410
0.212347
0.253515
0.249311
0.255369
0.276979
0.230978
0.288907
0.316676
0.319778
0.308390
0.278610
0.284273
0.236702
0.280656
0.273944
0.217307
0.205910
0.207081
0.194509
0.134031
0.145838
0.104581
0.129243
0.081484
0.096744
0.072018
0.064378
0.104138
0.089917
0.046905
0.065476
0.059252
0.026798
0.051032
0.022297
0.005865
0.088462
0.032558
0.056028
0.008402
0.031066
0.075992
0.049820
0.048689
0.090134
0.059564
0.058877
0.090872
0.008157
0.047532
0.031194
0.020874
0.064450
0.031478
0.050838
-0.007263
0.020846
0.030736
0.058841
0.072301
0.033110
0.019762
0.036709
0.017234
0.028477
0.015788
0.017514
0.052200
0.060132
0.086954
0.028443
0.033964
0.028225
0.020432
0.070987
0.042661
0.016186
0.020041
0.024791
0.047803
0.034676
-0.005292
0.069933
0.070829
0.041855
-0.001992
0.045529
0.047311
0.036763
0.010553
0.005476
0.042974
0.077804
0.058092
0.080561
0.051335
0.068438
0.075898
0.062803
0.037801
0.068262
0.049828
0.071228
0.070034
0.061457
0.068544
0.001876
0.038201
0.081170
0.035011
0.030767
0.019889
0.059514
0.035147
0.059097
0.037356
0.057340
0.035146
0.059088
0.066469
0.075061
0.030663
0.058900
0.046345
0.071889
0.098409
0.045889
-0.000325
0.025241
0.059629
0.049370
0.126674
0.131584
0.134842
0.139362
0.173238
0.163495
0.206048
0.167058
0.158257
0.175554
0.210043
0.167133
0.188767
0.132217
0.159958
0.110838
0.065630
0.114525
0.082967
0.020975
0.087967
0.016203
0.028489
-0.062567
0.079374
0.630552
1.084232
0.636638
0.153119
-0.067514
-0.086272
-0.109075
-0.066658
-0.051229
0.040456
0.049613
0.070078
0.042831
0.018453
0.025991
0.056838
0.046897
0.051030
0.087852
0.085233
0.098991
0.106680
0.107877
0.128333
0.148159
0.117841
0.142419
0.106164
0.185823
0.219288
0.191991
0.200280
0.242241
0.238832
0.241406
0.294182
0.295590
0.312255
0.306355
0.277522
0.306468
0.311217
0.291665
0.268527
0.262864
0.224715
0.264337
0.258442
0.229155
0.224063
0.233532
0.179866
0.141637
0.132417
0.156711
0.087241
0.067370
0.076024
0.068525
0.054784
0.063279
0.053030
0.040153
0.080772
0.019286
0.055406
0.037373
0.000964
0.049755
-0.018080
0.021262
0.101504
0.060214
0.059896
0.025231
0.045007
0.054169
0.037967
0.094980
0.043246
0.055752
-0.011478
0.042280
0.040549
0.094327
0.074103
0.042214
0.034655
0.052276
0.015373
0.032609
0.050341
-0.005039
0.004606
0.039519
0.041879
0.032544
0.055632
0.053036
0.046158
0.020236
0.033822
0.008738
0.007789
0.038393
0.015894
0.043510
0.067418
0.065134
0.094979
0.046294
0.062026
0.059761
0.054709
0.090899
0.019478
0.037267
0.099045
0.083217
0.015691
0.046297
0.088136
0.045425
0.055092
0.050590
0.033300
0.046679
0.029928
-0.001028
0.052631
0.052824
0.021385
0.081354
0.052796
0.061611
0.036749
0.052054
0.048093
0.034800
0.040755
0.016665
-0.001012
0.040903
0.037341
0.093999
0.057183
0.048948
0.038737
0.031027
0.050355
0.060067
0.067025
0.050074
0.060157
0.043261
0.028139
0.057628
0.068519
0.097368
0.065231
0.131837
0.148664
0.173101
0.143607
0.149371
0.207749
0.205296
0.218435
0.186216
0.192673
0.191815
0.200320
0.235764
0.204603
0.120800
0.142579
0.084279
0.086054
0.106952
0.054747
0.081207
0.023060
0.022874
-0.019845
0.055072
0.582059
1.031613
0.665013
0.185617
-0.026585
-0.063144
-0.061311
-0.075891
-0.039999
0.017823
0.012106
0.060434
0.075554
0.027957
0.028368
0.075760
0.056455
0.055413
0.045532
0.089760
0.068051
0.114438
0.120616
0.149568
0.101743
0.131134
0.132538
0.153403
0.162365
0.225831
0.200439
0.242612
0.266006
0.202050
0.281240
0.299430
0.274117
0.299022
0.288013
0.318070
0.271779
0.315111
0.330922
0.280814
0.302420
0.281434
0.255106
0.230858
0.230364
0.249462
0.191079
0.190466
0.174361
0.122959
0.153554
0.097638
0.107524
0.075922
0.119908
0.089692
0.089119
0.070825
0.097224
0.041606
0.067975
0.014328
0.059364
0.033002
-0.002961
0.076805
0.046988
0.046629
0.080766
0.082239
0.088761
0.003217
0.016711
0.064876
0.074550
0.081452
0.033843
0.014734
0.063570
0.037047
0.000382
0.065435
0.023444
0.000248
0.005748
0.062858
0.033678
0.021012
0.037266
0.083682
0.022825
0.019278
0.064892
0.057013
0.052626
0.028648
0.050944
0.036339
0.022752
0.059364
0.016899
0.052366
0.037787
0.059322
0.070899
0.052266
0.034956
0.041297
0.017391
0.062574
0.038547
0.065730
0.019774
0.052722
0.029301
0.079203
0.031533
0.090845
0.039266
0.041388
0.055848
0.048766
0.054347
0.009341
0.057437
0.047601
0.055550
0.054399
0.072811
0.047286
0.030193
0.036384
0.036936
0.008921
0.062966
0.055015
0.014873
0.079080
0.023896
0.073673
0.075600
0.050302
0.117734
0.051742
0.059372
0.027035
0.069565
0.027877
0.054039
0.095122
0.074000
0.056570
0.053611
0.083107
0.087477
0.067543
0.102058
0.092920
0.065307
0.127484
0.139282
0.197862
0.187704
0.188872
0.217760
0.257232
0.206145
0.158404
0.218023
0.193628
0.157988
0.193211
0.158033
0.091236
0.134781
0.093341
0.085347
0.069216
0.062030
0.024042
0.018746
-0.065069
0.059108
0.580038
1.051811
0.645848
0.171186
-0.004137
-0.081498
-0.085166
-0.081416
-0.045543
-0.015969
0.063760
0.088409
0.076490
-0.007267
0.061465
0.092363
0.093809
0.063549
0.056495
0.075817
0.039379
0.120872
0.111276
0.088006
0.122898
0.139575
0.142114
0.170146
0.178871
0.143040
0.252574
0.239437
0.201248
0.263712
0.287316
0.308703
0.317912
0.308733
0.302921
0.285700
0.308330
0.303217
0.329802
0.271569
0.245008
0.242021
0.234667
0.206988
0.238452
0.246401
0.195893
0.223134
0.162172
0.186516
0.141970
0.103471
0.126687
0.093104
0.106758
0.076907
0.091587
0.072294
0.118669
0.064595
0.053560
0.041847
0.037019
0.032175
0.017217
0.074757
0.063318
0.050004
0.028834
0.094932
0.049158
0.045305
0.072411
0.066954
0.037122
0.073840
0.057304
0.048786
0.001344
0.052699
0.054798
0.061664
-0.003818
0.048658
0.060251
0.010777
0.036827
0.081772
0.066785
0.048072
0.053027
0.027264
0.082563
0.013709
0.050745
0.023658
0.041525
0.046752
0.018861
0.050099
0.025271
0.049835
0.038222
0.083346
0.064049
0.065891
0.018003
0.001513
0.060173
0.034407
0.052263
0.046275
0.046843
0.090427
0.020338
0.070462
0.053574
0.028490
0.048938
0.044577
0.026143
0.011785
0.049238
0.011201
0.081137
0.079374
0.084627
0.031212
0.024369
0.044885
0.039870
0.064421
0.076227
0.070226
0.067813
0.056704
0.053763
0.078665
0.010047
0.096411
0.058599
0.059807
0.020907
0.032873
-0.009511
0.017494
0.092710
0.068624
0.105628
0.101852
0.122389
0.092095
0.060477
0.160496
0.151921
0.144519
0.184619
0.187055
0.156961
0.200532
0.216356
0.171671
0.191616
0.190894
0.132850
0.150367
0.114790
0.111525
0.077349
0.069757
0.077044
0.057252
0.023434
-0.021294
-0.030283
0.098538
0.575313
1.037912
0.650899
0.171062
-0.054754
-0.101117
-0.093641
-0.068292
-0.038308
0.000596
0.051119
0.027505
0.052293
0.054330
0.087768
0.043910
0.031310
0.107099
0.073954
0.104700
0.038186
0.070770
0.071022
0.132104
0.157330
0.120152
0.162262
0.160855
0.159375
0.216336
0.168389
0.187469
0.267465
0.260625
0.236318
0.250158
0.250147
0.300952
0.304630
0.302442
0.325429
0.264977
0.312498
0.270832
0.298404
0.258325
0.245863
0.195401
0.219862
0.140799
0.210701
0.144091
0.205900
0.183111
0.138450
0.090814
0.105390
0.048247
0.080555
0.085989
0.063217
-0.009498
0.073612
-0.011501
0.011023
0.048921
0.032451
-0.005470
0.012851
0.068911
0.034330
0.030177
0.047581
0.038587
0.037621
0.053371
0.054101
0.090002
0.025571
0.041146
0.030979
0.015608
0.037179
0.061478
0.062920
0.046445
0.072520
0.053543
0.089893
0.076861
0.033196
0.087687
0.011738
0.034763
0.012143
0.019341
0.071575
0.029406
0.055666
0.048770
0.041955
0.047966
0.086283
0.060186
0.061916
0.025243
0.044033
0.062818
0.039990
0.015643
-0.010103
0.035634
0.047700
0.018726
0.070583
0.032308
0.052437
0.002598
0.089626
0.059957
0.049549
0.065417
0.015508
0.034058
0.065696
0.028405
0.008640
0.012623
0.035052
0.062033
0.046650
0.047563
0.054626
0.030872
0.019188
0.015756
-0.001584
0.088099
0.102377
0.083802
0.048138
0.056424
0.009755
-0.000017
0.007660
0.039036
0.047815
0.046820
0.105493
0.115632
0.093592
0.135797
0.127965
0.188402
0.191881
0.198989
0.153580
0.185877
0.185773
0.215565
0.123559
0.213159
0.151631
0.137028
0.103861
0.150876
0.075013
0.089393
0.094368
0.051143
-0.016849
0.002132
-0.055112
0.070661
0.538325
1.048644
0.644833
0.192135
-0.033759
-0.076814
-0.168853
-0.092213
-0.050793
-0.006107
0.056924
0.056218
0.065488
0.011123
0.045551
0.047751
0.055547
0.041475
0.076378
0.077677
0.093943
0.098496
0.093105
0.050189
0.094220
0.166683
0.147427
0.190463
0.178102
0.148770
0.171022
0.215063
0.202623
0.175649
0.221565
0.265871
0.280663
0.257209
0.298212
0.292830
0.286282
0.258950
0.266950
0.241890
0.245014
0.273334
0.254992
0.201777
0.166131
0.205831
0.191562
0.180154
0.144759
0.080796
0.107114
0.102737
0.095074
0.113468
0.087964
0.075119
0.093010
0.041200
0.070548
0.066033
0.028038
0.015723
-0.006724
0.067593
0.065666
0.053933
-0.006534
0.001757
0.070761
0.032005
0.032440
0.058857
0.055531
0.033888
0.059674
-0.001110
-0.003342
0.008586
0.046294
0.069493
0.053269
0.019045
0.040273
0.039250
0.041589
0.029490
0.042384
0.068759
0.026676
0.084452
0.004819
-0.012568
0.095594
0.041218
0.065907
0.040708
0.049086
0.060625
0.021755
0.094122
0.052398
0.008596
-0.019782
0.038269
0.017038
0.039611
0.014008
0.011641
0.086065
0.029981
0.039200
0.040122
0.070776
0.079670
0.053854
0.051354
-0.024181
0.083925
0.046273
0.038413
0.096850
0.021821
0.045818
-0.006703
0.029077
0.032925
0.007535
0.043538
0.068045
0.043193
0.061802
0.018720
0.032064
0.051840
0.005305
0.047824
0.046595
0.046215
0.038518
0.032974
0.068659
0.019813
0.015250
0.040123
0.032338
0.048197
0.049831
0.067993
0.078844
0.116370
0.098196
0.118493
0.117630
0.166329
0.107021
0.197245
0.190295
0.184719
0.191252
0.196078
0.199116
0.175522
0.155520
0.138722
0.195084
0.125477
0.138487
0.081146
0.110028
0.048714
0.046553
0.055766
0.037340
-0.010477
-0.042968
0.043198
0.570175
1.039094
0.606691
0.222867
-0.041947
-0.094136
-0.102266
-0.113203
-0.083764
-0.025463
0.025498
0.065514
0.051114
0.033537
0.062799
0.041525
0.033216
0.037045
0.063458
0.073853
0.103265
0.120595
0.064232
0.146320
0.112505
0.110072
0.188435
0.145350
0.142098
0.139682
0.200335
0.246576
0.231804
0.215330
0.277195
0.297234
0.282228
0.271747
0.270062
0.327984
0.302623
0.294988
0.323363
0.260253
0.262191
0.210629
0.179905
0.235174
0.178390
0.195819
0.206509
0.177151
0.186218
0.148353
0.129706
0.092697
0.075381
0.049392
0.076416
0.086075
0.066440
0.078159
0.051499
0.043864
0.041869
0.021394
0.098908
0.041298
0.081319
0.062269
0.047200
0.078949
0.065964
0.028886
0.043033
0.019855
0.027104
0.022380
0.019651
0.006537
0.029732
0.076546
0.092686
0.004267
0.055305
0.056440
0.026604
0.050761
0.047759
-0.001463
0.038673
0.058587
0.011542
0.036141
0.050033
0.089552
-0.003922
-0.003539
0.012070
0.060101
0.001549
0.064852
0.014172
0.000796
-0.000401
0.002850
0.063024
0.007549
0.023036
0.002783
0.061282
0.070213
0.034999
0.026257
0.039508
0.025093
0.015522
0.055247
0.044716
0.059383
0.026852
0.089992
0.013022
0.069249
0.069062
0.033065
0.041996
0.053397
0.115460
0.026820
0.013231
0.072325
0.010152
0.062848
0.025432
-0.003968
-0.017923
0.057577
0.048054
0.043716
0.097271
0.037565
0.022965
0.000733
0.057357
0.085992
0.039579
0.033357
0.068073
0.054283
0.047663
0.069389
0.060574
0.102264
0.154223
0.154467
0.160138
0.160382
0.186839
0.169136
0.189515
0.156628
0.156469
0.178798
0.179363
0.167041
0.104972
0.106500
0.117637
0.103037
0.077329
0.109911
0.052674
0.004472
-0.006184
-0.082727
0.091531
0.541822
1.078103
0.587624
0.083177
-0.046221
-0.089957
-0.110888
-0.131390
-0.083777
-0.050979
0.006655
0.009967
0.015026
-0.000620
0.055787
-0.013415
0.011925
0.064495
0.042686
0.044366
0.041689
0.115011
0.050922
0.102726
0.076507
0.113323
0.129333
0.137505
0.164225
0.116002
0.216446
0.208947
0.224602
0.264777
0.254748
0.294525
0.225637
0.272922
0.298286
0.276857
0.330412
0.276912
0.305879
0.315800
0.231023
0.244766
0.225462
0.252287
0.209651
0.150176
0.149461
0.177932
0.140315
0.123202
0.090049
0.127676
0.064609
0.051205
0.093420
0.073056
0.071953
0.011535
0.035909
0.052391
0.046666
0.031989
0.044907
0.021649
0.032448
-0.009150
0.020572
0.055495
0.056502
0.059894
0.009404
-0.008688
0.052628
0.008393
-0.005793
0.042396
0.048985
0.022133
0.065162
-0.007014
0.012742
0.021564
0.025648
0.007071
0.052530
0.059306
0.065563
-0.007120
0.051399
0.032287
0.038137
0.039911
0.036414
0.001302
0.060643
-0.007162
0.002630
-0.010729
0.009104
-0.000059
0.101030
0.008571
0.034945
-0.005849
0.034193
0.013638
0.062864
0.056532
0.030680
-0.000416
0.032232
0.068875
0.038274
0.072666
0.028780
0.009039
0.042815
0.037301
0.013664
0.025813
0.006429
0.012910
0.041051
0.012760
0.086678
-0.003935
0.019845
0.036425
0.004090
0.030290
-0.014648
0.011672
0.032179
0.018771
-0.001642
-0.048695
0.015503
0.017185
0.029699
-0.008609
0.054102
0.036204
0.015721
-0.013931
0.013794
-0.007567
0.040276
0.006539
0.009300
0.026274
0.018217
0.057958
0.045471
0.037757
0.013250
0.042225
0.002272
-0.018315
0.009260
0.071183
0.049438
0.028216
0.009779
0.078078
0.040243
0.138657
0.162926
0.133973
0.156799
0.183622
0.176853
0.144171
0.136317
0.165558
0.140520
0.126905
0.080255
0.086254
0.125296
0.028821
0.115281
0.077726
0.081054
0.044012
0.044741
-0.020048
-0.081672
0.054763
0.533608
0.998690
0.642152
0.108553
-0.085326
-0.073680
-0.151248
-0.151026
-0.104656
-0.016715
-0.022330
0.022861
0.010055
-0.037542
0.027483
-0.002053
0.051494
0.042030
0.030735
0.058490
0.082450
0.044181
0.069916
0.034831
0.044539
0.128158
0.121218
0.161340
0.108837
0.189028
0.126816
0.146954
0.153768
0.219778
0.257140
0.293791
0.300250
0.289047
0.282456
0.264319
0.267500
0.193177
0.274693
0.274020
0.264678
0.267448
0.199615
0.187706
0.170577
0.151207
0.127842
0.105178
0.180012
0.116098
0.106823
0.105085
0.070640
0.111921
0.085072
0.005311
0.053103
0.031889
0.067274
-0.032401
0.065321
0.021982
0.022414
0.035150
-0.006253
0.002008
-0.031374
0.033490
0.011435
-0.000214
0.032847
-0.009229
0.037137
0.017759
0.003780
0.028656
-0.010556
0.001609
0.030715
0.022664
0.002125
-0.031733
0.021738
0.017225
0.037522
0.019946
0.012532
0.007108
0.051287
0.031273
-0.053218
0.039137
-0.024579
0.008186
-0.006015
0.030367
0.015433
0.036888
0.012174
0.056395
-0.021549
0.026723
0.029908
-0.003372
0.053052
0.045834
0.027502
-0.008398
0.007252
0.032597
0.015715
-0.006284
0.010143
-0.014901
0.029871
0.035654
0.019979
0.012978
-0.001773
0.050175
0.010482
0.010137
-0.027108
0.027255
0.012606
0.023410
0.034190
0.030687
0.007923
-0.005594
0.035016
0.014489
-0.028843
-0.012635
-0.019835
0.007714
-0.012521
0.011108
0.039776
0.041072
0.032724
0.005439
0.075748
0.044655
0.078126
0.129067
0.108866
0.141737
0.130464
0.171029
0.195996
0.156895
0.158393
0.143476
0.157735
0.140146
0.117954
0.138785
0.110457
0.070322
0.011319
0.027079
0.031444
0.051444
0.007918
-0.033733
-0.043763
0.077173
0.567831
1.015095
0.648774
0.164664
-0.100563
-0.107099
-0.147381
-0.130418
-0.092339
-0.072004
-0.014837
0.006881
0.026319
0.030979
-0.037055
0.034720
-0.015365
0.006878
0.014925
0.031921
0.038777
0.061115
0.125610
0.068320
0.115530
0.104149
0.102920
0.140715
0.160087
0.171769
0.157329
0.159201
0.221095
0.244832
0.243089
0.177965
0.281831
0.285640
0.263111
0.249816
0.267410
0.268010
0.213575
0.213901
0.212725
0.235173
0.163971
0.256103
0.174454
0.150140
0.167309
0.109871
0.088294
0.114258
0.106368
0.070140
0.061199
0.046602
0.076652
0.036402
0.027854
0.042188
-0.009230
0.054464
0.060614
-0.022677
-0.010290
-0.004896
-0.029812
0.000164
0.018115
0.044276
-0.001137
0.053570
-0.011348
0.038763
-0.032322
-0.046363
-0.028249
0.000586
0.017902
-0.028181
-0.028959
0.001702
0.004783
0.028794
0.042078
-0.006683
0.015022
-0.038558
0.048180
0.007271
-0.012990
0.034945
0.002614
0.010483
0.023974
-0.000434
0.050729
0.037693
0.028912
-0.009308
0.031551
0.014097
-0.005644
0.017606
0.010027
-0.021992
0.020687
0.024834
0.027556
0.028735
-0.010282
0.044053
-0.056843
-0.012058
-0.027425
0.024681
-0.006095
0.014824
0.001811
-0.004736
0.040972
-0.032850
0.002531
-0.031321
0.007302
0.034379
0.021501
0.019392
0.003010
-0.033213
0.017282
-0.003237
0.036242
0.035597
0.049202
0.065812
0.108783
0.097437
0.110472
0.124270
0.093619
0.117922
0.110351
0.131587
0.095228
0.111540
0.079259
0.080607
0.097028
0.061932
0.050468
0.036573
0.014196
-0.007803
0.029637
-0.016721
-0.072108
-0.143663
0.062857
0.555127
1.036277
0.592012
0.149060
-0.069476
-0.101801
-0.137690
-0.108380
-0.058763
-0.008134
0.032788
-0.048580
0.019276
0.021248
0.035391
0.027321
0.026612
0.000307
-0.035768
0.011501
0.034950
0.044206
0.051801
0.095827
0.041708
0.086547
0.109574
0.108467
0.133022
0.111641
0.163586
0.204790
0.181457
0.208379
0.197924
0.227934
0.248920
0.273112
0.228539
0.244363
0.214160
0.247346
0.269160
0.263011
0.246136
0.228823
0.172112
0.229974
0.145129
0.121685
0.122108
0.141161
0.087464
0.122278
0.051561
0.048916
0.056617
0.069175
0.024499
0.030206
0.044404
0.062161
0.018866
0.015505
0.025774
0.013569
-0.008809
0.009313
-0.009068
-0.013287
0.002592
0.026524
0.001112
-0.016599
0.023146
0.018657
-0.011440
0.025714
-0.035479
-0.050894
0.037187
-0.027034
-0.050175
-0.005600
-0.033243
-0.041515
-0.020983
-0.033552
-0.019475
-0.004994
0.010999
0.015271
0.001750
-0.014187
0.024915
0.002822
0.011620
0.024959
-0.005233
0.005250
0.010310
-0.015768
0.008626
0.017760
0.002833
-0.034914
0.025556
-0.058514
0.009346
-0.053309
-0.017478
-0.014667
0.004420
0.002714
0.022246
-0.002497
-0.039999
0.021955
0.001747
0.004270
-0.017666
-0.010840
0.005160
0.002251
-0.017967
-0.057263
0.029277
-0.037274
-0.023898
0.013823
-0.007065
0.023974
-0.042446
-0.014543
0.026967
-0.007704
-0.020056
0.018027
-0.033150
0.021500
0.028505
0.008167
-0.017834
0.005158
0.014781
-0.028314
-0.011067
-0.043501
-0.009398
-0.027455
-0.020620
0.017415
0.054227
0.037686
0.038248
0.007355
0.049661
0.100823
0.061269
0.128609
0.108492
0.162595
0.148479
0.146033
0.211683
0.105056
0.145240
0.119649
0.125105
0.070210
0.039686
0.011181
0.100340
0.053250
0.009564
0.009356
0.006624
-0.020068
-0.030878
-0.148093
0.020410
0.555491
0.985063
0.593516
0.133839
-0.055619
-0.122563
-0.140733
-0.140735
-0.106131
-0.071524
-0.064257
-0.004622
0.002911
-0.036417
0.000774
0.024951
0.024347
0.020714
0.011230
0.053258
-0.004878
0.014954
0.063032
0.066902
0.094926
0.095359
0.085721
0.138133
0.129255
0.164699
0.106437
0.162251
0.207649
0.162064
0.200395
0.166879
0.160823
0.251871
0.265417
0.277655
0.244661
0.238159
0.204779
0.223495
0.178567
0.214307
0.185113
0.147562
0.175858
0.189035
0.113194
0.116177
0.041558
0.095474
0.080117
0.059052
0.012868
0.037953
0.025360
0.045978
0.016073
0.026615
0.012240
0.024227
-0.023343
-0.019348
-0.035671
-0.005929
-0.018014
-0.040968
-0.008968
-0.024873
0.015768
-0.000565
-0.012805
-0.038362
-0.023608
0.020715
-0.038943
-0.056447
0.025216
-0.011031
-0.017175
-0.008576
0.020365
0.022739
-0.023762
-0.018444
-0.002441
-0.010137
-0.000515
0.007781
-0.033897
0.042915
-0.023822
-0.000637
0.043097
-0.007327
0.028511
-0.036974
-0.024330
-0.014427
-0.009376
-0.023149
-0.066143
-0.046554
-0.006114
-0.049646
-0.045428
-0.001432
-0.025925
-0.022616
-0.022396
-0.048299
-0.012043
-0.013620
-0.006212
-0.016259
0.004849
0.004368
-0.027139
-0.003203
-0.016122
-0.041271
0.036890
0.004263
-0.038541
0.004662
-0.021977
-0.059584
-0.024011
-0.003887
0.020223
0.008824
-0.045979
-0.031658
-0.006426
0.016936
-0.068135
-0.022423
-0.014773
-0.078792
0.027604
-0.001448
-0.023567
-0.050988
-0.004709
-0.035586
-0.027685
-0.025545
-0.005755
0.009910
-0.032168
-0.035154
-0.014177
0.030147
-0.001155
-0.007659
0.020031
0.051352
0.051197
0.062423
0.084931
0.109608
0.099318
0.161205
0.159071
0.135186
0.130547
0.104963
0.089328
0.090832
0.050309
0.057971
0.027791
0.024543
-0.022643
0.027462
-0.023694
-0.001655
-0.084058
-0.102349
-0.072264
0.006453
0.546041
0.932215
0.570687
0.166107
-0.091435
-0.126998
-0.154397
-0.143818
-0.079300
-0.085537
-0.053686
-0.037288
0.001587
-0.003406
-0.018254
0.032679
-0.005874
-0.004488
-0.055433
-0.009592
0.076527
-0.061908
0.028146
0.055685
0.054492
0.077086
0.112745
0.046288
0.115341
0.102455
0.142027
0.081835
0.181635
0.155423
0.199027
0.273361
0.166659
0.244354
0.221391
0.188098
0.252946
0.260677
0.216889
0.187531
0.209513
0.206751
0.180505
0.119046
0.149235
0.147051
0.098716
0.101273
0.118888
0.115409
0.033421
0.070775
-0.005367
0.044438
0.038171
0.016416
0.008250
0.020789
-0.009276
-0.001992
-0.015651
-0.037478
-0.019102
0.032307
0.009770
-0.043001
-0.002708
-0.056027
-0.026657
-0.069436
-0.024384
-0.004762
-0.032386
-0.032437
0.016597
-0.060262
-0.027038
-0.075609
-0.017608
-0.039907
-0.059716
-0.040232
0.015078
-0.033832
-0.039485
0.010918
-0.002835
0.011865
-0.005466
0.012883
-0.035216
0.009239
-0.069609
-0.029470
-0.044147
-0.029996
-0.023865
-0.005341
-0.009000
0.019402
-0.017188
-0.045011
-0.001022
-0.007005
-0.049980
0.001355
-0.050493
-0.024614
-0.055914
-0.070687
-0.048070
0.029975
-0.018592
-0.057597
0.009550
-0.061847
-0.031356
-0.060022
-0.054410
-0.015002
-0.037150
-0.025383
-0.025358
-0.017154
-0.023041
-0.013308
-0.050773
-0.023895
-0.068838
-0.042039
-0.077971
-0.065295
0.018891
-0.031003
-0.030880
0.007299
-0.042003
-0.037262
-0.053353
-0.030990
-0.000581
-0.019227
-0.042081
0.002073
-0.032759
-0.030533
-0.052281
-0.011204
-0.021392
-0.035489
-0.038769
0.028550
-0.038372
-0.006499
0.042487
0.035359
0.042076
0.065388
0.062421
0.075159
0.136191
0.113965
0.100626
0.124608
0.104399
0.157380
0.123498
0.120076
0.146983
0.032302
0.031535
0.051248
0.023278
0.033675
-0.001645
-0.048404
-0.006050
-0.070928
-0.060404
-0.185535
-0.002248
0.535074
0.923172
0.531779
0.104569
-0.112749
-0.181301
-0.196893
-0.167610
-0.087310
-0.078978
-0.038611
0.006239
-0.032781
-0.031576
-0.078950
-0.022625
0.001636
0.013927
0.012055
0.030825
-0.059646
0.014386
-0.007602
0.038674
0.037618
0.067191
0.054152
0.109229
0.110720
0.122371
0.155577
0.180602
0.183556
0.173523
0.202131
0.195760
0.177718
0.220596
0.170750
0.250868
0.215295
0.185793
0.237003
0.230586
0.203098
0.173707
0.221743
0.163699
0.105398
0.133410
0.107409
0.057943
0.085228
0.059607
0.047484
0.008280
0.044648
-0.018167
-0.000147
0.029465
-0.009353
-0.014070
-0.011848
-0.018187
-0.034946
0.009135
-0.031953
-0.103089
-0.003101
-0.054402
-0.047637
0.020521
-0.057541
-0.051303
0.000959
-0.014340
-0.006333
-0.077711
-0.050031
-0.095638
-0.065775
-0.023576
-0.038722
-0.045041
-0.025637
-0.028264
-0.016971
-0.058063
-0.034864
0.004944
-0.045711
-0.021712
-0.060294
-0.010969
-0.012088
-0.033099
-0.022087
0.016849
-0.047114
-0.027548
-0.012019
-0.019863
-0.049767
-0.033866
-0.055573
-0.044381
-0.015393
-0.047785
-0.023323
-0.022244
-0.059258
-0.057956
-0.012186
-0.008848
-0.037743
-0.055815
0.000135
-0.015380
-0.030451
-0.025117
-0.002018
-0.011256
-0.013896
-0.060251
-0.023403
-0.024522
-0.001388
-0.059942
-0.037607
-0.047883
-0.026652
-0.065262
-0.074949
-0.045365
-0.051380
-0.053714
-0.058663
-0.035608
-0.065143
-0.008316
-0.050203
-0.031901
-0.039515
-0.044141
-0.050292
-0.019463
-0.079390
-0.048849
-0.011678
-0.017919
-0.007259
-0.052868
-0.066851
-0.032821
-0.043933
-0.077108
-0.051143
-0.059623
-0.029193
-0.039180
-0.063515
-0.017965
-0.038938
-0.032179
-0.012913
0.008660
0.004734
-0.027361
-0.014578
0.060928
0.011792
0.079722
0.117725
0.065810
0.094061
0.088106
0.076436
0.139768
0.112526
0.088101
0.080500
0.081507
0.067509
0.085511
0.038943
0.019241
-0.025832
-0.014036
-0.054565
-0.053580
-0.042883
-0.058304
-0.125630
0.018111
0.475649
0.996239
0.570911
0.108256
-0.167493
-0.141880
-0.227075
-0.178058
-0.122322
-0.047256
-0.050496
-0.032996
-0.084763
-0.052868
0.021443
-0.066229
-0.005889
-0.027545
-0.056450
0.009002
-0.003563
-0.010211
-0.015626
0.049925
0.052647
0.087806
0.020721
0.070129
0.090625
0.130883
0.111524
0.127204
0.176491
0.157406
0.188191
0.164005
0.227208
0.205005
0.230919
0.218859
0.200997
0.166036
0.222553
0.210800
0.158759
0.182051
0.132447
0.140829
0.097034
0.123101
0.130386
0.068696
-0.001685
0.088645
0.023378
0.000588
-0.027621
-0.007809
0.024443
-0.002913
0.058093
-0.018427
-0.044829
0.007660
-0.078660
-0.040086
-0.057624
-0.027740
-0.081628
-0.036024
-0.036025
-0.057559
-0.065514
-0.051394
-0.055220
-0.052648
-0.032997
-0.020873
0.015606
-0.037352
-0.035348
-0.045240
-0.050879
-0.071245
-0.046403
-0.020295
0.028049
-0.086320
-0.053843
-0.072702
-0.103291
-0.031447
-0.059132
-0.045105
-0.013819
-0.085625
-0.058263
-0.043179
-0.065514
-0.038140
-0.034524
-0.005695
-0.038107
-0.054365
-0.039524
-0.039918
-0.035880
-0.083917
-0.023932
-0.028871
-0.024828
-0.049542
-0.053442
0.000018
-0.048842
-0.093945
0.006029
-0.056786
-0.062298
-0.032948
-0.026576
-0.070655
-0.045741
-0.008491
-0.053463
-0.060802
-0.060808
0.002417
-0.037355
-0.040373
-0.030016
-0.041894
-0.048145
-0.037884
-0.019734
-0.098147
-0.059428
-0.052963
-0.026679
-0.068635
-0.071245
-0.012286
-0.011646
-0.063262
-0.062506
-0.052592
-0.064299
-0.086592
-0.082027
-0.026697
-0.060189
-0.010035
-0.068485
-0.037356
-0.051295
-0.038802
-0.030996
-0.038295
0.014732
-0.021637
0.005473
0.055774
0.086289
0.075842
0.044694
0.063770
0.083870
0.092031
0.094599
0.136330
0.108160
0.144178
0.059818
0.061553
0.044047
0.024614
0.018340
0.010444
-0.007104
0.004761
-0.002798
-0.045543
-0.136986
-0.113039
0.037911
0.526528
0.949717
0.573115
0.099727
-0.071495
-0.152482
-0.214088
-0.143538
-0.166258
-0.067146
-0.046574
-0.042873
-0.013462
-0.073478
-0.055186
-0.034497
-0.007987
-0.073196
-0.017838
-0.019293
0.045678
-0.024751
0.036291
0.021365
0.082970
0.000328
0.018373
0.096914
0.058976
0.121538
0.141662
0.115391
0.150262
0.168440
0.151906
0.173004
0.159105
0.221560
0.164586
0.198112
0.248386
0.213805
0.194946
0.202402
0.178768
0.158929
0.181858
0.150544
0.111808
0.092854
0.069495
0.117964
0.063704
0.086788
0.044272
0.076277
0.014381
-0.047453
0.051039
-0.023041
-0.024640
-0.067922
-0.058820
-0.047332
-0.036265
-0.054385
-0.018941
-0.052721
-0.046853
-0.041973
-0.095075
-0.071920
-0.070508
-0.062275
-0.058627
-0.046024
-0.008183
-0.064726
-0.043917
-0.050259
-0.065305
-0.065933
-0.053543
-0.058321
-0.073834
-0.043966
-0.023359
0.003124
-0.047449
-0.026100
-0.020342
-0.056718
-0.074896
-0.077909
-0.060929
-0.043503
-0.038097
-0.107594
-0.031219
-0.079800
-0.072657
-0.055383
-0.041240
-0.093791
-0.029387
-0.040137
-0.049046
-0.016649
-0.043410
-0.084864
-0.006461
-0.090828
-0.006372
-0.022472
-0.019170
-0.005072
-0.057181
-0.034093
-0.018515
-0.041454
-0.061093
-0.049712
-0.014541
-0.046036
-0.019119
-0.077577
-0.004676
-0.074561
-0.061007
-0.057647
-0.045475
-0.000226
-0.022649
-0.050732
-0.102688
-0.002489
-0.037535
0.004322
-0.042259
-0.052645
0.005852
0.017163
-0.013110
-0.026250
-0.006916
0.036665
0.051194
0.031014
0.052678
0.063771
0.119255
0.098148
0.105474
0.120603
0.085038
0.119073
0.113461
0.017137
0.038275
0.005267
-0.023973
0.008172
-0.047732
0.011831
-0.043237
-0.065442
-0.056086
-0.167771
-0.027174
0.552820
1.007415
0.637209
0.081917
-0.119376
-0.193478
-0.148658
-0.155069
-0.113937
-0.130811
-0.055542
-0.041883
-0.039999
-0.045083
-0.053739
-0.031713
-0.042952
-0.037801
-0.034427
-0.025608
-0.049039
-0.018447
0.015862
0.011685
0.024979
0.053040
0.028318
0.080807
0.085664
0.099860
0.116055
0.099159
0.117020
0.136270
0.174956
0.168534
0.197918
0.190409
0.173907
0.227337
0.234072
0.164052
0.180416
0.171451
0.140316
0.221693
0.139100
0.178743
0.153315
0.102192
0.118725
0.117082
0.027220
0.047275
0.069752
0.055572
0.024899
0.037505
-0.014735
-0.007913
-0.044202
-0.059405
-0.051156
-0.083141
-0.062061
-0.049039
0.003105
-0.060281
-0.042204
-0.064186
-0.039425
-0.055714
-0.037671
-0.026114
-0.066381
-0.025410
-0.073769
-0.031847
-0.072725
-0.042984
-0.031333
-0.059637
-0.093196
-0.052103
-0.024762
-0.070694
-0.057029
-0.061758
-0.066638
-0.060677
-0.027938
-0.058189
-0.043009
-0.039123
-0.100046
-0.049440
-0.018989
-0.012297
-0.015411
-0.078421
-0.042036
-0.057958
-0.041886
-0.032116
-0.035535
-0.055299
-0.038402
-0.034005
-0.033958
-0.059735
-0.044045
-0.063875
-0.045598
-0.080612
-0.051585
-0.046169
-0.035645
-0.013925
-0.036918
-0.053045
-0.078424
-0.058193
-0.034660
-0.051367
-0.070962
-0.033681
-0.051637
0.012678
-0.040057
-0.043631
-0.068120
-0.036494
-0.106649
-0.060397
-0.040934
-0.023739
-0.074568
-0.077696
-0.003544
-0.045352
-0.053176
-0.075578
0.015603
-0.066329
-0.075906
-0.077928
-0.068527
-0.044748
-0.087467
-0.087897
-0.015440
-0.075497
-0.069458
-0.015720
-0.003988
0.080409
0.068302
0.019662
0.005556
0.123073
0.068922
0.066929
0.125929
0.078023
0.110666
0.102110
0.099780
0.077783
0.023700
0.027528
0.069030
-0.042419
0.018336
0.021216
-0.019630
-0.022726
-0.065132
-0.121814
-0.164147
-0.028675
0.454936
0.981618
0.582001
0.108600
-0.067676
-0.179135
-0.215773
-0.183896
-0.151544
-0.052553
-0.026931
-0.075869
-0.008664
-0.069169
-0.061472
-0.027266
-0.065114
-0.035626
-0.024694
-0.031273
-0.003032
-0.015049
-0.006643
0.022661
0.042525
0.023065
0.015298
0.065998
0.080984
0.123157
0.100109
0.140807
0.137383
0.150004
0.210244
0.166647
0.223781
0.173972
0.154581
0.188203
0.169634
0.216601
0.209382
0.176368
0.182212
0.134585
0.112154
0.071550
0.113839
0.080717
0.119823
0.073552
0.071717
0.058981
0.047608
0.040308
0.021320
-0.040717
0.041988
-0.044780
-0.070382
-0.019579
-0.058067
0.009551
-0.035820
-0.058740
-0.050717
-0.070092
-0.057174
-0.064428
-0.009289
-0.053746
-0.059480
-0.081040
-0.021755
-0.048455
-0.050129
-0.099144
-0.058487
-0.066441
-0.049990
-0.067431
-0.012104
-0.087830
-0.095776
-0.037208
-0.057026
-0.021286
-0.047088
-0.072220
0.001369
-0.092914
-0.025081
-0.077215
-0.055668
-0.045372
-0.086891
-0.023260
-0.060256
-0.066470
-0.041642
-0.050626
-0.094068
-0.042002
-0.076495
-0.096843
-0.065814
-0.042269
-0.045777
-0.063985
-0.045625
-0.035666
-0.073059
-0.049648
-0.061963
-0.043269
-0.039599
-0.023563
-0.021894
-0.002381
-0.011706
-0.115106
-0.024028
-0.060029
-0.078516
-0.083408
-0.069185
-0.047686
-0.025018
-0.014998
-0.068213
-0.074319
-0.023687
-0.040025
-0.055935
-0.029562
-0.045901
-0.048194
-0.055086
-0.071212
0.023687
-0.026687
-0.036257
-0.016593
-0.071466
-0.075300
-0.083180
-0.089164
-0.038839
-0.046098
-0.101247
-0.075626
-0.066098
-0.064171
-0.058765
-0.018096
-0.086941
-0.014126
-0.025307
-0.052606
-0.066598
-0.049858
-0.022854
-0.068416
-0.091343
-0.065707
-0.068672
-0.030999
-0.059220
-0.026569
-0.044111
-0.063653
-0.061763
-0.074422
-0.072526
0.018535
-0.055838
-0.038220
-0.003341
-0.029623
0.003552
0.053933
-0.025888
0.054525
0.065018
0.068873
0.075565
0.111367
0.080663
0.070090
0.066050
0.016662
0.046481
0.102630
0.079604
-0.002761
-0.013944
-0.055098
-0.003238
0.019550
-0.036834
-0.112230
-0.164039
0.034044
0.492943
0.974603
0.532586
0.077816
-0.142737
-0.145503
-0.236327
-0.157848
-0.133012
-0.111533
-0.105219
-0.036865
-0.078703
-0.025058
-0.063098
-0.016171
-0.006426
-0.050010
-0.026246
-0.043345
-0.013143
-0.020112
0.039679
-0.030017
0.002163
0.052345
0.056680
0.116157
0.065589
0.053510
0.098959
0.132402
0.144676
0.136301
0.175927
0.160263
0.180553
0.194698
0.183177
0.207963
0.202651
0.224229
0.207356
0.219306
0.138401
0.091930
0.151925
0.143419
0.163214
0.148938
0.094493
0.053609
0.062363
0.058365
0.033523
-0.000853
-0.030692
-0.084866
-0.013911
-0.030672
-0.064318
0.001366
-0.049381
-0.014774
0.019945
-0.021226
0.005923
-0.051475
-0.038012
-0.063082
-0.069150
-0.069510
-0.066341
-0.037164
-0.037335
-0.010285
-0.077467
-0.080891
-0.065879
-0.072453
-0.066444
-0.068281
-0.048584
-0.085438
-0.010731
-0.023383
-0.060822
-0.037247
-0.065833
-0.090078
-0.077848
-0.033221
-0.035127
-0.020737
-0.042542
-0.030055
-0.054480
-0.037139
-0.074545
-0.050914
-0.045701
-0.042386
-0.036622
-0.076530
-0.029415
-0.040698
-0.092336
-0.076979
-0.050335
-0.047184
-0.014630
-0.052435
-0.035607
-0.041725
-0.014949
-0.056281
-0.076599
-0.046023
-0.060456
-0.102666
-0.012255
-0.073188
-0.056645
-0.060727
-0.075427
-0.023630
-0.064716
-0.074652
-0.054208
-0.062877
-0.007246
-0.092472
-0.046747
-0.041317
-0.025350
-0.054665
-0.001320
-0.082635
-0.024537
-0.021699
-0.038826
-0.106185
-0.032809
0.001271
-0.039321
-0.070668
0.002527
0.006061
0.059950
0.085009
0.056740
0.086834
0.092240
0.122000
0.084048
0.061031
0.082035
0.076366
0.068394
0.044584
0.000459
0.027435
0.042276
0.013593
-0.038465
-0.029668
-0.012544
-0.047233
-0.080646
-0.117205
-0.008944
0.544354
0.937520
0.563673
0.105165
-0.130650
-0.144859
-0.198136
-0.217031
-0.126772
-0.121544
-0.028495
-0.094336
-0.084455
-0.074105
-0.025697
-0.067225
-0.082091
-0.037851
-0.036187
-0.015515
0.023156
-0.010222
-0.021211
0.009704
0.025578
0.027702
0.063436
0.092390
0.092174
0.121845
0.133409
0.148530
0.136307
0.115704
0.159781
0.138154
0.179183
0.206807
0.159039
0.223005
0.190655
0.197266
0.209468
0.214983
0.195136
0.180128
0.156899
0.099336
0.145934
0.068714
0.123234
0.115485
0.053763
0.039879
0.046209
0.025323
0.022196
0.006344
-0.002992
-0.002771
-0.003280
0.026262
-0.058037
-0.027981
-0.012544
-0.032352
-0.023784
-0.045426
-0.076384
-0.003145
-0.025042
-0.057246
-0.051081
-0.062593
-0.047482
-0.096480
-0.012641
-0.071370
-0.037399
-0.026255
-0.030773
-0.016968
-0.054315
-0.051624
-0.036724
-0.046624
-0.024497
0.024186
-0.030897
-0.034215
-0.017105
-0.018237
-0.069343
-0.013309
-0.049321
-0.006562
-0.071256
-0.060005
-0.044509
-0.036239
-0.055861
-0.084387
-0.068668
-0.016558
-0.076187
-0.060512
-0.063480
-0.077938
-0.023132
-0.061804
-0.063587
-0.031404
-0.016062
-0.035598
-0.025439
-0.071691
0.005629
-0.041939
-0.008447
-0.082143
-0.018596
-0.058845
-0.052445
-0.068728
-0.087189
-0.042989
-0.005533
-0.039884
-0.036416
-0.074986
-0.041910
-0.062210
-0.066050
-0.052425
-0.037593
-0.097727
-0.028060
-0.014159
-0.029121
-0.045601
-0.060434
-0.040093
-0.009370
-0.022016
-0.049395
-0.038842
-0.024814
-0.020014
-0.078723
0.026874
0.018632
-0.035039
-0.035617
-0.011072
0.022878
-0.006376
0.003299
0.044208
0.007532
0.069230
0.095156
0.102739
0.132152
0.107477
0.082548
0.086060
0.126572
0.105306
0.054227
0.053425
0.056520
-0.018755
0.026631
-0.029565
-0.021323
-0.023166
-0.012279
-0.032148
-0.083184
-0.092522
-0.044982
0.517256
0.950297
0.537454
0.063289
-0.119166
-0.142444
-0.188299
-0.153677
-0.109007
-0.130142
-0.001367
-0.027504
-0.021744
-0.061251
-0.034241
-0.011509
-0.022789
0.000704
-0.001102
-0.005868
-0.015073
0.014857
0.000392
0.023959
0.012826
0.106698
0.092374
0.097327
0.088688
0.120545
0.113987
0.146517
0.120430
0.175071
0.178576
0.231247
0.212409
0.182168
0.225875
0.203579
0.185600
0.191513
0.208185
0.184638
0.186838
0.187094
0.179733
0.146834
0.167732
0.139219
0.090412
0.103976
0.097293
0.101383
0.077673
0.068127
0.029059
-0.002253
-0.029358
-0.032106
-0.002735
0.000288
-0.017736
-0.060601
-0.074777
-0.037599
-0.027883
-0.011590
-0.027894
-0.066482
-0.003931
0.014820
-0.081164
-0.024369
-0.056903
-0.011097
-0.061718
-0.062187
-0.036682
-0.010609
-0.035956
-0.044343
-0.072620
-0.056358
-0.074214
-0.069834
-0.076289
-0.024343
-0.041381
-0.047398
0.022475
-0.079310
-0.068856
-0.044606
0.000773
-0.016796
-0.019933
-0.034568
-0.057442
-0.012267
-0.064837
-0.019338
-0.020486
-0.027468
-0.006861
-0.052250
-0.007424
-0.024911
-0.040038
-0.031193
-0.042533
-0.004068
0.021483
-0.082975
-0.010364
-0.028315
-0.016958
-0.061689
-0.035377
-0.027610
-0.071490
-0.018578
-0.053066
-0.048370
-0.041422
-0.057803
-0.076838
-0.004281
-0.049141
-0.063425
-0.003959
-0.075359
-0.035202
-0.026501
-0.046253
0.015690
-0.018164
-0.013978
-0.021233
-0.027914
-0.047636
-0.040416
-0.049439
0.006141
-0.032277
-0.023489
-0.028745
-0.055305
-0.043617
-0.057102
-0.010584
-0.017588
-0.061957
-0.020504
-0.000387
0.000192
-0.016403
-0.023419
-0.011516
0.003081
-0.067055
-0.055810
-0.021909
-0.026909
-0.027391
-0.048573
-0.005806
-0.041482
-0.021622
-0.072049
-0.019980
-0.027242
-0.073268
-0.053600
-0.036739
-0.014069
-0.067165
-0.015664
-0.007560
-0.009508
-0.070607
-0.037366
-0.009284
-0.012921
0.005675
-0.000407
0.022256
0.107305
0.066608
0.045691
0.061044
0.054002
0.070487
0.107882
0.133269
0.082682
0.101197
0.101160
0.107819
0.089953
0.059623
0.005514
0.028652
-0.013011
-0.034544
-0.051964
-0.054374
-0.077012
-0.100360
-0.139928
-0.024124
0.521894
0.976943
0.589455
0.109507
-0.139678
-0.159783
-0.172374
-0.213419
-0.094470
-0.052710
-0.062782
-0.037092
-0.018524
0.006510
0.019908
0.019537
-0.005278
-0.027708
0.015225
0.002941
0.013708
0.018507
-0.026825
0.041916
0.064666
0.092091
0.065776
0.050624
0.133181
0.075922
0.117117
0.164347
0.180756
0.203014
0.221147
0.186758
0.214396
0.165376
0.210908
0.184162
0.261833
0.202230
0.213865
0.238084
0.214691
0.187481
0.184929
0.138765
0.134894
0.105889
0.143822
0.137678
0.096517
0.048114
0.081665
0.073630
0.043325
0.007370
0.011547
-0.022017
-0.003792
0.008317
-0.061973
-0.004955
-0.054881
-0.057597
-0.035007
0.020063
-0.017789
-0.014520
0.028052
-0.026699
-0.026576
-0.013780
-0.013690
-0.018818
-0.050342
-0.044359
0.011493
-0.023696
0.018164
-0.030594
-0.025102
0.007150
-0.024569
0.026313
-0.043702
0.033529
-0.062909
-0.020079
-0.017256
-0.031680
0.006034
-0.021320
-0.006353
-0.019016
-0.024682
-0.009429
-0.039227
-0.013519
-0.044174
-0.004210
-0.020381
-0.002200
-0.044588
-0.044594
-0.018026
-0.050235
-0.029317
0.030692
-0.080778
-0.011696
0.006362
-0.047317
-0.018221
-0.035009
-0.039315
-0.008603
0.008273
-0.052883
-0.014898
-0.010090
-0.050696
-0.057086
-0.029708
-0.057484
-0.058079
-0.065925
-0.030642
-0.007035
-0.046225
-0.032343
-0.010320
-0.020674
-0.037287
-0.001661
-0.049730
-0.024162
-0.026102
-0.043978
0.047644
-0.027415
-0.052537
-0.038230
-0.052639
-0.043681
-0.046427
-0.012238
-0.016749
0.004889
0.036540
-0.037977
-0.011696
0.082716
0.089323
0.070391
0.115675
0.075363
0.131492
0.117351
0.132041
0.139369
0.117149
0.113171
0.126877
0.070152
0.068640
0.023417
0.047088
0.012993
-0.000147
0.025896
0.019502
0.010986
-0.098359
-0.075844
0.013952
0.550454
0.962743
0.505691
0.136188
-0.098529
-0.201087
-0.177422
-0.151335
-0.099273
-0.062900
-0.008487
0.000772
-0.037011
0.001308
-0.013655
-0.026846
-0.007596
-0.039919
0.042129
0.035908
0.013261
0.005278
0.059308
0.080512
0.045008
0.059966
0.077211
0.068845
0.086037
0.135553
0.139905
0.103768
0.125935
0.159275
0.132562
0.213101
0.157047
0.239861
0.223071
0.207779
0.271302
0.232750
0.213502
0.211136
0.207911
0.202975
0.156929
0.174231
0.163237
0.152989
0.074757
0.137332
0.114888
0.040506
0.051917
0.033108
0.069313
0.034988
0.021271
0.026758
0.012847
-0.017857
0.037932
-0.053085
-0.043067
0.015084
-0.041753
-0.028255
0.014708
-0.026050
0.009150
-0.021914
-0.041093
-0.026871
-0.021815
-0.076944
0.007573
-0.075992
0.025532
0.004897
-0.032017
0.020347
0.002593
-0.028786
-0.010868
-0.012317
-0.063105
-0.027109
-0.065722
0.011997
0.016438
-0.018567
-0.020683
-0.045590
0.000941
-0.011841
-0.037714
0.013763
-0.026395
-0.007246
-0.033607
0.000786
-0.034422
-0.023828
-0.002423
-0.020493
-0.034639
-0.030721
-0.042253
0.001334
-0.029672
0.003877
-0.007847
-0.010770
0.000834
-0.060654
-0.006905
-0.058823
-0.035012
-0.032788
-0.012659
-0.037382
0.007614
-0.040577
-0.028463
-0.012152
-0.010955
-0.065387
0.006009
0.003451
0.008244
0.016474
-0.009082
-0.038241
-0.003762
-0.017222
-0.050700
0.026733
-0.030819
-0.026214
-0.040781
-0.036465
-0.026780
-0.026062
0.019049
0.000255
0.002931
-0.033943
-0.022612
0.001206
-0.039777
-0.005312
0.011040
0.008889
0.016448
0.070308
0.038790
0.070276
0.113351
0.131562
0.119426
0.116610
0.111036
0.135847
0.158057
0.118890
0.113962
0.053446
0.053814
0.069639
0.059468
0.042628
0.010958
0.044673
0.068907
-0.003219
0.014306
-0.049739
-0.119438
0.004562
0.590883
0.987689
0.604760
0.120381
-0.088166
-0.152517
-0.170403
-0.121997
-0.121355
-0.061584
-0.038528
0.016480
0.002979
0.007819
0.017764
0.048057
0.025997
-0.041353
-0.009636
-0.007819
0.034488
0.044492
0.066704
0.104234
0.019406
0.105109
0.095089
0.114550
0.126355
0.142081
0.158615
0.159724
0.196743
0.174162
0.166968
0.183921
0.202173
0.225296
0.226597
0.223451
0.238973
0.235228
0.216886
0.219425
0.249758
0.208708
0.163178
0.163162
0.201483
0.213728
0.117471
0.128229
0.082725
0.101185
0.067877
0.079617
0.081208
-0.008376
0.039692
0.031193
0.038425
0.018032
0.045526
0.024743
-0.005033
-0.002756
0.020854
-0.000897
0.020126
-0.012373
0.028536
0.009653
0.019172
-0.032945
0.030258
0.052503
-0.020238
-0.005923
-0.010562
-0.007014
-0.027786
-0.010803
0.009597
-0.037583
-0.035773
0.023284
0.015746
0.033967
-0.032380
-0.004191
-0.050915
-0.028533
-0.010627
-0.012533
-0.040943
0.005465
0.013798
-0.030475
0.052771
-0.021306
-0.014656
-0.005967
-0.030991
-0.037738
0.030557
-0.048348
-0.019600
-0.016881
-0.006534
0.005652
0.011645
-0.009528
-0.015040
0.018405
-0.035896
0.009611
-0.019784
0.015526
0.032037
-0.001704
0.001452
-0.009434
-0.006370
-0.011666
-0.020696
0.046820
-0.009768
0.027787
-0.043931
0.041844
0.018541
-0.012614
-0.060446
0.010819
0.015165
-0.007933
-0.012133
-0.006808
0.017665
-0.018669
0.005783
0.047821
-0.012083
-0.004638
0.002061
0.011959
0.034221
-0.013635
0.001975
-0.009831
0.020209
-0.035607
-0.035553
0.002795
0.001964
0.001621
0.025785
0.021451
-0.002422
0.021473
-0.033351
0.000107
-0.002775
0.005986
0.027014
0.026691
0.009687
0.071075
0.078452
0.075963
0.126207
0.173434
0.098223
0.141755
0.128882
0.154578
0.168340
0.116569
0.136949
0.114524
0.087771
0.101118
0.091371
0.041759
0.031124
0.004765
0.071781
-0.005234
-0.036536
-0.038074
-0.118214
0.073513
0.568498
1.019533
0.621576
0.122334
-0.108634
-0.108046
-0.154827
-0.143395
-0.072181
0.001764
-0.025600
-0.029531
0.001783
0.002750
0.009306
-0.011754
-0.008070
0.072266
-0.011777
0.077769
0.040223
0.044894
0.035983
0.062590
0.071428
0.109817
0.109059
0.116140
0.145969
0.154696
0.154901
0.214132
0.247054
0.241573
0.257539
0.184922
0.217559
0.256483
0.225221
0.207985
0.216026
0.264782
0.231987
0.299879
0.203590
0.211658
0.219333
0.229175
0.145493
0.187579
0.152896
0.128966
0.112464
0.107901
0.104514
0.036727
0.035812
0.053993
0.065298
0.033800
-0.013502
0.042436
0.005440
0.031311
0.000967
0.020082
0.023189
-0.015918
0.032553
0.012183
0.019978
-0.051273
-0.012874
-0.010976
0.003507
0.045792
-0.002792
-0.024799
0.035163
0.032841
0.008238
-0.007453
0.011273
0.001815
-0.021594
-0.047741
-0.007614
0.013477
0.008583
0.024030
0.012095
0.041197
-0.040108
0.000948
-0.004810
-0.003415
-0.024252
0.014492
-0.036065
0.017703
0.020788
-0.021770
0.004424
0.017726
0.014529
0.051755
0.060310
0.000343
-0.006835
0.024212
-0.014349
-0.003248
-0.009197
0.021525
0.010342
0.015312
-0.046451
0.038895
0.014307
0.019698
0.013640
0.025995
-0.010832
0.012089
0.000993
-0.036215
0.031132
0.061509
-0.008416
0.035088
0.003275
0.000194
0.022659
-0.015016
0.022124
-0.002540
0.012419
0.030385
0.017884
0.017878
-0.030555
-0.019749
-0.021683
-0.001806
-0.001436
0.000970
0.014201
0.034459
0.039552
-0.018204
-0.018728
0.020398
0.025500
0.023440
0.034922
0.012802
0.083375
0.123475
0.089740
0.117284
0.113602
0.171624
0.163981
0.169802
0.139447
0.131272
0.148620
0.104068
0.157318
0.099312
0.101352
0.096827
0.067471
0.083683
0.053717
0.049665
0.032847
0.008377
-0.030778
-0.074689
0.063577
0.579956
1.035720
0.602169
0.138304
-0.058848
-0.112849
-0.159205
-0.100542
-0.088142
-0.006663
0.014289
0.026006
0.037649
0.030870
0.078047
0.063091
0.041251
0.006091
0.060530
0.037750
0.050517
0.102964
0.043615
0.063943
0.070329
0.095301
0.177865
0.137748
0.117791
0.139084
0.185322
0.175720
0.188657
0.206290
0.246527
0.223442
0.248854
0.262259
0.225411
0.299704
0.270557
0.280436
0.266793
0.273979
0.210253
0.179618
0.232897
0.190394
0.223457
0.164799
0.178865
0.204386
0.115561
0.161536
0.165284
0.073870
0.089551
0.084985
0.035883
0.070878
0.045499
0.012271
0.040755
0.017854
0.023122
0.007540
0.028090
0.028601
-0.005035
0.041400
0.050228
0.030108
0.077582
0.011475
0.001798
-0.001448
0.000343
0.001481
0.046334
0.023645
0.033516
0.019345
0.050064
0.006427
0.043721
-0.033156
0.008954
-0.000690
0.043483
0.049130
0.039726
-0.011355
0.044009
-0.020647
0.047228
0.032272
-0.017006
0.014306
-0.011253
-0.008702
0.046509
0.055172
-0.011060
0.020440
0.022976
0.011085
-0.018514
0.022479
0.020742
-0.023266
0.052844
0.036067
-0.018397
0.010692
0.014499
0.057653
0.015906
0.013404
0.015184
0.011148
0.011583
0.023448
0.034186
0.020999
0.026771
0.020566
0.029778
0.015580
-0.025896
0.050801
0.038828
-0.006491
0.041913
0.011734
-0.007424
-0.027859
0.005391
-0.001438
0.018150
-0.000118
0.034702
0.074769
-0.002747
0.015395
0.094009
0.035568
0.067690
0.075738
0.096429
0.082886
0.077487
0.111870
0.193434
0.180703
0.162612
0.209217
0.160693
0.149077
0.207078
0.143330
0.144247
0.089955
0.064412
0.063006
0.026464
0.050660
0.053840
0.050644
0.005893
-0.062024
-0.006088
0.030410
0.554843
1.044036
0.644347
0.146045
-0.068865
-0.127761
-0.195794
-0.119238
-0.115912
0.001099
0.035179
0.026229
0.019690
0.035448
0.024092
0.016674
-0.002761
0.085206
0.035937
0.074784
0.064841
0.042011
0.053968
0.102437
0.088465
0.130490
0.137153
0.180611
0.156365
0.186834
0.157824
0.199199
0.255358
0.185413
0.245707
0.224713
0.231930
0.248139
0.275728
0.248738
0.304887
0.305755
0.249774
0.255156
0.234946
0.272454
0.170417
0.195578
0.189162
0.197567
0.153064
0.176743
0.138501
0.120808
0.127734
0.112219
0.094171
0.094505
0.074446
0.050798
0.047803
0.093305
0.056164
0.011889
0.008775
0.055236
-0.009486
0.019421
0.032283
0.009922
0.008090
0.035227
0.036017
0.002912
0.035245
0.081383
0.043161
0.018419
0.023849
0.031540
-0.017951
0.038994
0.025747
0.015158
0.065795
0.025964
0.074803
0.015020
0.028987
0.073562
0.044861
0.054443
0.001644
0.037275
0.036856
0.056093
0.020215
0.048258
0.011960
-0.023015
0.002958
0.041600
0.053396
0.046175
0.020725
0.059571
0.053713
0.040785
0.045147
0.051333
0.009499
0.025866
0.030250
0.039943
0.000159
0.061422
0.039498
0.078952
-0.018843
0.068143
0.010797
0.047558
0.010223
0.002534
0.094530
0.019178
0.055166
0.088628
0.015632
0.042645
0.021622
0.036017
0.033591
0.032952
-0.025626
0.038383
0.000628
0.022699
0.011077
0.016993
0.004107
0.056727
0.007608
0.001250
0.058930
0.038503
0.064197
0.027847
0.083242
0.098137
0.070795
0.073419
0.124274
0.095328
0.128896
0.086363
0.145892
0.183552
0.170406
0.154744
0.163895
0.144655
0.145002
0.125811
0.116727
0.085241
0.125605
0.076043
0.076825
0.020276
0.068408
0.027091
-0.014353
-0.081207
0.082224
0.556653
1.059818
0.617615
0.167304
-0.047726
-0.087916
-0.142394
-0.091642
-0.032568
-0.003664
0.049463
0.041079
0.048544
0.030529
0.006513
0.007204
0.049718
0.059039
0.032373
0.096557
0.050191
0.115405
0.066231
0.112134
0.158240
0.141539
0.180667
0.151592
0.179813
0.215204
0.176373
0.161648
0.182501
0.239613
0.290913
0.256385
0.281576
0.296216
0.266190
0.283326
0.287766
0.277158
0.266664
0.221537
0.283422
0.223032
0.200687
0.228560
0.163310
0.159759
0.171290
0.146757
0.176780
0.144444
0.125953
0.085107
0.117873
0.103291
0.093856
0.082623
0.078509
0.003594
0.054039
0.056970
0.064372
0.018373
0.026669
0.041091
0.076743
0.044404
0.027831
0.067042
0.062434
0.028277
0.013151
0.017629
0.035999
-0.000003
0.055021
0.014384
0.051489
0.032625
0.007025
0.047581
0.030754
0.011165
0.047959
0.039119
0.086183
0.066536
0.037499
-0.031370
-0.021227
0.004392
0.038783
0.032322
-0.001295
0.035953
0.012506
0.014679
0.023589
-0.028513
0.020054
0.034679
-0.005594
0.032043
0.106615
0.038224
0.041032
0.021037
0.045997
0.064420
0.035736
0.050431
0.032448
0.003943
-0.011776
0.067730
0.024436
0.016629
0.028107
0.060344
0.032359
0.006865
0.033674
0.080777
0.060427
0.047017
0.058735
0.053447
0.159974
0.096989
0.123890
0.150649
0.177941
0.193401
0.192315
0.209871
0.163330
0.197102
0.155078
0.173273
0.146407
0.159758
0.135227
0.127944
0.073765
0.074532
0.078162
0.072309
0.014303
-0.038088
-0.044931
0.101660
0.616355
1.005771
0.663160
0.157867
-0.043031
-0.066982
-0.112237
-0.158646
-0.039346
0.008752
0.052362
0.036272
0.008864
0.043844
0.059593
0.068451
0.076229
0.081965
0.058450
0.078991
0.101503
0.086173
0.071956
0.153239
0.094906
0.161842
0.141437
0.120660
0.125394
0.201770
0.187984
0.202125
0.239341
0.230727
0.263481
0.253999
0.313525
0.270737
0.293485
0.294311
0.317116
0.300011
0.241675
0.250890
0.254685
0.223092
0.256869
0.229998
0.201687
0.186123
0.190619
0.141844
0.118932
0.161366
0.103263
0.110593
0.121789
0.104656
0.094096
0.088793
0.103387
0.027645
0.106497
-0.000826
0.053546
0.029141
0.024040
0.011556
0.029447
0.075013
0.057673
0.036613
0.016805
0.049440
0.064636
0.051490
0.052386
0.026356
0.028919
0.030499
0.045867
0.007287
0.016335
0.031045
0.068402
0.052094
-0.004305
0.053267
0.024188
0.038191
0.083255
0.074003
0.054900
0.051835
0.050046
0.058972
0.037333
0.061652
0.015794
0.064955
0.071379
-0.011739
0.020986
0.065354
0.042780
0.044476
0.015968
0.035950
0.046352
0.017524
0.042622
0.079737
0.051811
0.046925
0.051645
0.079478
0.070262
0.008170
0.039193
0.080212
0.040862
0.058357
0.033940
0.082671
0.015980
-0.002902
0.014649
0.040857
0.084308
0.096136
0.025686
0.038663
0.051773
0.077296
0.048045
0.007392
0.043878
0.026656
0.072530
0.042312
-0.001668
0.051497
0.070501
0.023057
0.067747
0.016681
0.039466
0.042577
0.060564
0.029682
0.004412
0.095741
0.055850
0.034602
0.061764
0.090598
0.046867
0.050781
0.058988
0.011836
0.056870
0.056578
0.042400
0.055471
0.025651
0.023723
0.072486
0.093158
0.044468
0.050908
0.066446
0.052700
0.044592
0.102671
0.083269
0.034773
0.035619
0.051434
0.055493
0.070626
0.041992
0.125054
0.100589
0.106029
0.105796
0.091604
0.130097
0.162960
0.168490
0.196727
0.184224
0.191366
0.176129
0.184406
0.197893
0.157070
0.169220
0.138419
0.081819
0.083500
0.081867
0.109216
0.066330
0.073468
0.025665
-0.015082
-0.052616
0.079676
0.615885
1.028976
0.664203
0.163357
-0.027454
-0.072087
-0.110256
-0.085894
-0.059695
-0.060501
-0.017487
0.043244
0.038088
0.065083
0.071065
0.061915
0.047110
-0.006059
0.054793
0.101159
0.060437
0.075780
0.107234
0.070574
0.090789
0.154659
0.149513
0.204481
0.158870
0.209284
0.194272
0.235687
0.231008
0.307833
0.268656
0.219169
0.264335
0.288282
0.311655
0.287417
0.277372
0.291516
0.300086
0.302825
0.299846
0.321542
0.237379
0.212638
0.204774
0.142095
0.228036
0.180274
0.162787
0.170705
0.144092
0.105989
0.125765
0.119199
0.060917
0.102951
0.067908
0.106502
0.070450
0.074645
0.049721
0.092925
0.070741
0.059668
0.043168
0.034607
0.047220
0.059559
0.026276
0.038438
0.071369
0.048977
0.084837
0.084888
0.003457
0.045941
0.020227
0.042417
0.042038
0.071490
0.052939
0.011688
0.097312
0.060640
0.033231
0.036722
0.065739
0.047708
0.016184
0.064224
0.070987
0.045819
0.059740
0.029586
0.026342
0.018560
0.050795
0.016276
0.039314
0.012680
0.044826
0.073082
0.030288
0.023210
0.049516
0.055089
0.054559
0.016635
-0.006981
0.010182
0.058374
0.039667
0.119727
0.026246
0.065492
0.051979
0.059082
0.022011
0.042507
0.025156
0.036164
0.063485
0.052709
0.094778
0.018293
0.010091
0.080181
0.076980
0.078330
0.036833
0.100033
0.117709
0.007444
0.127747
0.072636
0.083505
0.073057
0.127262
0.152218
0.187111
0.167489
0.192795
0.226950
0.222091
0.254380
0.186117
0.202648
0.182081
0.210779
0.138853
0.135209
0.108968
0.098318
0.108335
0.102422
0.107979
0.071806
0.020400
0.015419
0.011184
0.139039
0.567141
1.065969
0.654191
0.172611
-0.032634
-0.036235
-0.134281
-0.074078
-0.039700
0.011764
0.072166
0.047952
0.043112
0.037158
0.076669
0.075881
0.084836
0.080088
0.083417
0.088077
0.099315
0.115115
0.143610
0.077877
0.150927
0.142273
0.165896
0.207105
0.195047
0.174860
0.220444
0.208039
0.230884
0.218650
0.255639
0.258556
0.288891
0.310743
0.324474
0.290679
0.320996
0.354665
0.270294
0.318474
0.296261
0.277319
0.250432
0.220490
0.225079
0.236436
0.191059
0.182665
0.172623
0.183476
0.130496
0.096354
0.117273
0.086319
0.089089
0.088161
0.090483
0.067533
0.080059
0.046149
0.087017
0.087088
0.081345
0.013360
0.030018
0.056500
0.031600
0.069849
0.094816
0.018283
-0.017039
0.033498
0.064534
0.071808
0.096231
0.013629
0.034079
0.027163
0.022904
0.054844
0.065719
0.067137
0.037896
0.073655
0.069236
0.053539
0.072057
0.054067
0.081293
0.027968
0.049051
0.099863
0.027356
0.069230
0.051546
0.065560
0.056344
0.082458
0.058361
0.090614
0.021952
0.067140
0.057718
0.041199
0.057501
0.067310
0.083164
0.105386
0.024739
0.030797
0.038805
0.044117
0.052008
0.013841
0.057673
0.084930
0.042104
0.030755
0.048702
0.026324
0.090645
0.051892
0.014917
0.058785
0.105596
0.025510
0.085734
0.082292
0.027049
0.036360
0.061393
0.042859
0.052380
0.015367
0.056438
0.053421
0.047710
0.069762
0.029325
0.013778
0.093193
0.010814
0.049943
0.064076
0.050522
0.010210
0.018793
0.058446
0.053662
0.035121
0.110117
0.120273
0.095452
0.193655
0.135803
0.143479
0.179143
0.149663
0.208366
0.188610
0.231105
0.172030
0.133181
0.162097
0.179084
0.132657
0.104023
0.129329
0.103936
0.075565
0.097716
0.091718
0.007222
-0.005227
-0.055701
0.109904
0.576145
1.057240
0.678631
0.197336
-0.019188
-0.056504
-0.082927
-0.115217
-0.036665
0.012430
0.083515
0.042793
0.064502
0.036577
0.068761
0.019491
0.047677
0.045210
0.041821
0.078633
0.074328
0.062396
0.121204
0.132570
0.146515
0.104930
0.131526
0.163349
0.215323
0.198310
0.206340
0.181918
0.215453
0.296513
0.249388
0.315032
0.256186
0.302602
0.331440
0.265237
0.301536
0.293462
0.294809
0.266924
0.269672
0.268005
0.268360
0.253471
0.183254
0.206872
0.156082
0.145289
0.149232
0.172092
0.159082
0.126522
0.077605
0.076657
0.121183
0.056070
0.098279
0.092230
0.098982
0.100299
0.040347
0.079263
0.053967
0.028437
0.064146
0.018244
0.019332
0.043954
0.031039
0.065722
0.067249
0.045429
0.045812
0.040004
-0.001358
0.014025
0.046262
0.075891
0.033356
0.084667
0.043720
0.084503
0.021312
0.080768
0.028655
0.061280
0.064925
0.053998
0.065243
0.029286
0.027782
0.048917
0.030473
0.043980
0.033708
0.073882
0.020741
0.031155
0.049600
0.076908
0.033638
0.028737
0.036803
0.073483
0.046464
0.027163
0.084682
0.034693
0.019087
0.034516
0.056535
0.034121
0.061833
0.054567
0.014938
0.029715
0.019241
0.003638
0.034802
0.031903
0.082658
0.064585
0.058307
0.021186
0.075766
0.071701
0.110804
0.055263
0.055687
0.058579
0.013490
0.007170
0.092660
0.033048
0.076716
0.048673
0.032374
0.074398
-0.000271
0.052491
0.052322
0.063733
0.075545
0.042957
0.089923
0.086455
0.062435
0.071968
0.047984
0.113256
0.126485
0.058204
0.081568
0.132878
0.102088
0.151714
0.152524
0.171722
0.209759
0.230912
0.223412
0.192047
0.214274
0.214796
0.175113
0.184430
0.136200
0.178130
0.113613
0.203032
0.100410
0.041128
0.034302
0.074080
0.077823
0.004407
0.039722
-0.020729
0.126479
0.609833
1.054982
0.644198
0.195690
-0.040406
-0.076302
-0.090484
-0.065413
-0.039291
0.020658
0.035101
0.053175
0.098027
0.055844
0.074040
0.045772
0.056183
0.062496
0.044731
0.028508
0.071500
0.062049
0.075777
0.096875
0.120615
0.120576
0.140378
0.180830
0.193544
0.224992
0.231411
0.190939
0.261077
0.238161
0.247377
0.299861
0.325417
0.311504
0.299319
0.330658
0.297613
0.275307
0.289484
0.274042
0.283591
0.268940
0.255214
0.227686
0.248612
0.188056
0.193071
0.147522
0.107499
0.140786
0.099833
0.094773
0.115513
0.107128
0.092441
0.047415
0.097442
0.067247
0.054592
0.089235
0.074869
0.029462
0.054082
0.018878
0.043192
0.043864
0.049030
0.059028
0.077974
0.084167
0.041691
0.045223
0.017004
0.034976
0.082297
0.081831
0.032028
0.026425
0.048402
0.082422
0.042299
0.031690
0.004274
0.021420
0.001481
0.054457
0.036850
0.070249
0.057869
-0.010005
0.039835
0.058183
0.071141
-0.007813
0.061272
0.010305
0.048763
0.030753
0.093845
0.011027
0.046791
0.049413
0.088519
0.038653
0.056681
0.054250
0.110151
0.065881
0.073428
0.038539
0.036786
0.050523
0.025467
0.073414
0.050264
0.041761
0.036715
0.036579
0.034606
0.069943
0.031849
0.030134
0.051543
0.035672
0.035233
0.021069
0.079093
0.042304
0.059732
0.066749
0.032513
0.072224
0.060068
0.086351
-0.002375
0.012262
0.040687
0.008925
0.005378
0.038786
0.091010
0.054011
0.063572
0.044751
0.077589
0.068359
0.027762
0.052652
0.072652
0.052621
0.078625
0.080371
0.082414
0.066089
0.137802
0.119708
0.134263
0.183681
0.192878
0.156220
0.210330
0.188459
0.203279
0.196988
0.175996
0.174065
0.160559
0.122379
0.127745
0.071179
0.088213
0.080834
0.100584
0.113235
0.018380
-0.007697
-0.018625
0.079708
0.633478
1.056048
0.630037
0.184987
-0.002479
-0.107361
-0.067907
-0.037876
-0.072614
-0.006343
0.053864
0.061134
0.039113
0.050504
0.035346
0.069564
0.115612
0.054282
0.087983
0.046401
0.091101
0.057020
0.093309
0.131247
0.127396
0.137952
0.143674
0.158999
0.159717
0.170503
0.205269
0.212166
0.211980
0.262632
0.252292
0.302942
0.286610
0.301534
0.338665
0.272682
0.319186
0.285661
0.277680
0.247445
0.279051
0.236754
0.298728
0.244544
0.210900
0.212740
0.168190
0.120995
0.205121
0.112504
0.141754
0.090515
0.113559
0.079980
0.130324
0.052955
0.063649
0.067360
0.084460
0.029446
0.004051
0.067687
0.054268
0.023028
0.074638
0.030724
0.046746
0.018975
0.057668
0.030506
0.051822
0.085305
0.036495
0.079007
0.040243
0.014436
0.042189
0.025575
0.036965
0.034031
0.028542
0.033158
0.067464
0.050987
0.027039
0.025062
0.053714
0.023058
0.049675
0.088583
0.063219
0.081064
0.037580
0.068222
0.040526
0.015910
0.027416
0.009810
-0.018270
0.060798
0.071587
-0.007846
0.017777
0.061381
0.038012
0.062170
0.022073
0.057745
0.013857
0.016973
0.022482
0.040510
0.056406
0.065339
0.058448
0.051008
0.086356
-0.002182
0.042065
0.032565
0.034243
0.043552
0.017380
0.019417
0.036313
0.058470
0.032337
0.012338
-0.019291
0.011209
0.027625
0.021180
0.023383
-0.018648
0.088111
0.033589
0.008557
0.018868
0.047274
0.014235
0.051500
0.021386
0.066753
0.054445
0.028876
-0.008170
0.074334
0.055508
0.035088
0.068029
0.013759
-0.003717
0.038489
0.011773
0.015365
0.044013
0.027652
0.060362
0.067790
0.076358
0.039564
0.065143
0.051662
0.093730
0.079767
0.127572
0.084851
0.122707
0.170699
0.151130
0.205571
0.244772
0.142416
0.163156
0.154510
0.126145
0.137398
0.149834
0.114478
0.096905
0.091400
0.108190
0.080069
0.059096
0.084136
0.044397
-0.033720
-0.080823
0.074844
0.565615
1.027141
0.656638
0.172418
-0.005594
-0.084076
-0.111439
-0.105630
-0.077722
0.031752
0.057738
0.053149
0.013194
0.025510
0.030523
0.068897
0.069030
0.037815
0.081720
0.078569
0.130299
0.071466
0.060886
0.099075
0.110733
0.143617
0.152133
0.199231
0.153833
0.185496
0.165101
0.214055
0.223643
0.258782
0.255578
0.251421
0.301201
0.273775
0.226367
0.268481
0.297014
0.347879
0.301989
0.319558
0.275228
0.271526
0.217656
0.194566
0.195034
0.174795
0.160636
0.132049
0.177447
0.145269
0.113206
0.097305
0.128900
0.116722
0.094597
0.074872
0.099031
0.084809
0.086146
0.122430
0.058589
0.046104
0.077338
0.005433
-0.002499
0.020041
0.041761
0.014093
0.033655
0.068132
0.074283
0.017298
0.006972
0.045462
0.055099
0.010653
0.061999
0.058444
0.021363
0.034086
0.034749
0.016146
0.008187
0.050750
0.096117
0.039931
0.078522
0.025939
0.041451
0.029239
0.039689
0.009252
0.086554
0.050871
0.048840
0.051196
0.000982
-0.000354
0.034066
0.077676
0.093252
0.018007
-0.011960
0.057479
0.037405
0.014228
0.016896
0.066602
0.053567
0.038642
0.009270
0.036734
0.013045
0.030241
0.064836
0.020161
0.000754
0.043401
0.015659
0.029304
-0.002856
-0.005161
0.058270
0.013368
0.036006
0.032746
0.002731
0.065784
0.056104
0.057938
0.052676
-0.004408
0.049259
0.041288
0.010771
0.031588
0.051475
0.064335
0.013397
0.018270
0.048637
0.031517
0.065533
0.022442
-0.018865
0.029121
0.018816
0.036433
0.060792
0.034448
0.017002
0.054630
0.046078
0.036579
0.034250
0.075947
0.107708
0.048342
0.033726
0.094958
0.095313
0.069515
0.145840
0.132434
0.166807
0.165316
0.189796
0.227435
0.208227
0.146615
0.197917
0.149585
0.105594
0.131459
0.088418
0.105185
0.042527
0.079925
0.076592
0.011354
0.035082
-0.009627
-0.071768
0.064937
0.586385
1.030228
0.594007
0.186184
-0.068386
-0.079968
-0.134398
-0.096220
-0.044162
0.023542
0.031460
-0.006588
0.035693
0.069705
0.014826
0.056617
0.016320
0.018923
0.060555
0.062978
0.045703
0.061320
0.054668
0.118992
0.073243
0.076073
0.168456
0.151165
0.156062
0.203950
0.219688
0.248553
0.188045
0.239666
0.252228
0.243643
0.281441
0.303316
0.272272
0.279100
0.278315
0.297778
0.234417
0.211820
0.259260
0.273728
0.198251
0.168193
0.191883
0.201639
0.190387
0.163608
0.160335
0.101912
0.104022
0.117709
0.081344
0.101000
0.066830
0.048440
0.055372
0.110653
0.027432
0.034264
0.005308
0.024740
0.038049
0.015125
0.034930
0.049769
0.050978
0.041002
0.018810
0.044052
0.053585
0.039593
0.042143
0.055623
0.066085
0.038716
0.034544
-0.002072
0.017883
-0.034126
0.026276
0.038504
0.026547
0.028233
0.083321
-0.019431
0.042171
0.009756
0.026991
-0.006927
0.024692
0.010855
-0.023499
0.076357
0.036410
0.041007
0.037477
0.000803
0.037329
0.057555
0.055545
0.053953
0.031030
0.038360
0.044850
0.024188
0.034114
0.026271
0.034522
0.000562
0.047369
0.014199
-0.016677
0.053928
0.022579
0.028187
0.014118
0.038116
0.011526
0.018968
0.048724
-0.013037
0.034430
0.048627
-0.052718
0.052099
0.046402
0.013719
0.002983
0.041171
0.045698
0.008473
0.038563
0.015743
0.030935
0.076075
-0.004511
0.061920
0.004279
-0.004879
0.072674
-0.013713
0.071634
0.081379
0.046872
0.039857
0.052111
0.021646
0.098807
0.059282
0.035454
0.095113
0.127311
0.052664
0.143740
0.116454
0.144396
0.183745
0.191204
0.146736
0.201209
0.186985
0.145712
0.148715
0.123698
0.123083
0.088766
0.065896
-0.005449
0.070883
0.018801
0.055319
-0.027277
-0.008731
-0.004465
0.060274
0.586191
1.043142
0.600892
0.141469
-0.080172
-0.063115
-0.123431
-0.091368
-0.037463
-0.005967
0.038513
0.066984
0.014598
0.044874
-0.008708
0.025589
0.023911
0.024970
0.041141
-0.020760
0.090883
0.070310
0.116754
0.080806
0.101217
0.082392
0.099348
0.164053
0.097322
0.117591
0.141605
0.187627
0.208793
0.160062
0.247089
0.268011
0.232059
0.247519
0.306350
0.270258
0.259231
0.265217
0.278693
0.297601
0.244060
0.226907
0.221350
0.221561
0.197055
0.166769
0.175202
0.118178
0.150927
0.131002
0.129672
0.145437
0.043725
0.049967
0.060337
0.050939
0.036510
0.037319
0.039372
0.051654
0.047560
0.033866
0.038784
0.021472
0.017095
-0.008407
0.004603
0.015688
0.046187
0.016120
0.035166
0.036958
0.028258
-0.008079
-0.016162
0.054247
-0.000767
-0.020935
0.004877
0.006318
0.015426
0.075170
0.025043
-0.010344
0.005986
-0.012726
0.050505
-0.039954
-0.006288
0.001248
0.052087
0.024000
0.031594
-0.016130
-0.001321
0.026621
0.001729
0.002680
0.036616
0.042262
0.021108
0.028880
0.021355
0.026313
-0.000757
0.013593
0.010996
0.016092
0.054502
0.001412
0.019628
-0.016599
0.027013
0.019717
-0.007283
-0.033224
0.009974
0.054621
0.034544
0.091994
0.041736
0.037204
0.019896
-0.019643
-0.014567
0.023863
0.005727
0.023696
-0.021563
0.045763
0.018233
-0.014631
-0.011583
0.038674
0.031464
-0.001652
0.002753
0.003350
-0.055125
0.008198
0.012611
0.017994
-0.006551
0.009907
0.002802
0.037003
0.008686
0.034762
-0.012691
0.021317
0.035316
0.010983
0.003768
0.028480
-0.040515
0.012427
-0.004890
-0.008965
0.065140
0.006387
-0.029010
0.046138
-0.012690
0.039395
0.025286
0.017162
0.002868
0.009078
0.041179
-0.007888
0.053046
0.074822
0.110317
0.051923
0.133724
0.135088
0.165575
0.140007
0.157563
0.120002
0.107614
0.152858
0.176509
0.148983
0.146636
0.098570
0.085354
0.064560
0.051935
0.047706
0.036637
0.029330
0.028467
-0.030200
-0.106398
-0.130395
0.040066
0.582329
1.025039
0.567349
0.143567
-0.039086
-0.135720
-0.101393
-0.103767
-0.022158
-0.047917
0.006871
0.021338
-0.032678
0.017274
-0.021095
0.013435
0.045836
0.067735
0.060922
0.041488
0.038293
0.097463
0.099087
0.098233
0.102748
0.135943
0.143809
0.147408
0.133213
0.166783
0.233639
0.181001
0.168459
0.272400
0.231429
0.282894
0.222245
0.291662
0.319258
0.248253
0.263793
0.245938
0.266021
0.223171
0.269087
0.219786
0.212788
0.239763
0.168691
0.162260
0.127326
0.148372
0.096330
0.138416
0.131891
0.057745
0.107319
0.084484
0.050691
0.051608
0.050343
-0.009083
0.052445
0.032650
-0.021669
-0.020788
-0.002509
-0.010160
0.035549
-0.035147
0.008897
0.024435
0.047590
0.002788
0.003440
0.027739
0.017209
0.035600
0.011229
0.015631
0.032899
-0.020184
-0.009421
0.052645
0.024536
0.002913
-0.025381
-0.014274
-0.014271
0.004417
-0.042496
0.007631
-0.010241
0.027516
-0.051954
0.028371
-0.000116
0.001206
0.026482
-0.005688
0.010615
0.021377
0.020731
-0.002275
-0.001302
-0.026607
0.067544
0.025478
0.038668
0.028184
-0.032348
0.027992
-0.005421
0.028582
-0.011556
0.024675
0.000756
-0.037204
-0.006926
0.030094
0.004976
0.024296
-0.018182
0.017700
0.006782
0.035124
0.035782
-0.004569
0.048884
0.009304
0.005911
0.024811
-0.019488
0.053136
0.004348
0.033128
0.001618
0.002089
-0.000709
0.026622
-0.006706
0.040034
-0.009364
-0.036230
0.045729
-0.009190
0.031525
0.059541
0.021499
0.027073
0.049614
0.068462
0.131103
0.081394
0.124287
0.122871
0.152698
0.148466
0.137659
0.148503
0.180939
0.132317
0.118940
0.134469
0.057543
0.077143
0.050548
0.057110
0.032354
0.057903
0.005826
-0.039399
-0.024420
-0.089909
0.042184
0.548762
0.962929
0.595007
0.132792
-0.062316
-0.121367
-0.153226
-0.155150
-0.146830
-0.023418
-0.032080
-0.006528
-0.005826
