ecg_amplitude
-0.018202
0.005457
-0.024648
-0.006630
0.000293
-0.011283
0.033886
-0.003189
-0.014558
0.017431
0.016714
0.021056
-0.017660
0.010557
0.007722
0.000564
0.006088
-0.020202
0.008297
0.000159
0.022353
0.004972
-0.011280
-0.013123
0.025084
-0.001550
0.005423
0.013107
0.006082
0.027345
0.005043
-0.010481
-0.024888
0.006577
0.009647
0.010239
-0.010324
-0.011501
0.014973
0.039889
0.005471
0.010079
-0.003085
-0.003902
-0.015299
-0.002719
-0.033821
0.000987
-0.008524
-0.008656
0.010191
0.010457
0.008478
-0.003772
-0.003687
-0.002259
-0.006177
0.020336
-0.009876
-0.013730
-0.004828
-0.006375
0.007327
-0.000412
0.001313
-0.007732
0.010478
0.031059
-0.005087
0.008887
-0.029244
-0.023674
-0.020021
0.033323
-0.009571
0.027575
-0.005532
-0.010982
-0.002873
0.004696
0.032944
-0.002982
0.028492
-0.015487
-0.006204
0.011972
0.033489
-0.000752
-0.018222
-0.013224
-0.002674
0.005204
0.008845
-0.013072
0.001207
0.043875
0.031745
0.020742
0.033735
0.017364
0.012879
0.016557
0.006832
0.023868
0.011596
-0.006239
-0.011732
0.007961
0.017148
0.032251
0.006781
-0.000314
0.011588
0.011488
0.022904
-0.001344
0.002847
-0.011160
0.010050
0.020856
0.024295
0.000301
-0.013234
0.005085
0.010019
0.000148
-0.025463
-0.009018
0.003714
0.007782
-0.011197
0.010183
-0.000913
0.018230
0.011275
0.012707
0.028419
0.002620
-0.002534
-0.010960
-0.002599
0.027361
0.039631
-0.019333
0.020766
0.014858
0.018488
0.008534
0.001297
0.030279
0.024710
0.000003
0.023420
-0.008264
0.033159
-0.015261
0.037780
-0.010189
-0.000594
0.024262
0.013098
0.017106
0.031837
0.035928
-0.010590
0.002891
-0.002586
0.002301
0.006970
0.036194
0.019589
0.026233
0.019389
0.021997
0.008318
-0.000967
0.026232
0.009113
-0.005443
-0.007909
0.024980
0.006044
0.025694
0.017099
0.022578
0.008717
0.033932
0.028421
0.022493
0.013217
-0.001636
0.015484
0.011181
-0.001391
0.038811
-0.009691
0.015070
0.012476
-0.012568
0.015037
0.038223
0.029173
-0.000468
0.010317
0.001920
0.013739
0.002842
0.022146
0.012409
0.017135
0.005145
-0.004303
0.042932
0.003739
-0.007491
0.018925
0.028071
0.035755
0.004075
0.027734
0.022811
0.015419
0.002765
0.003670
0.000805
0.013627
0.024802
0.008828
0.026823
0.010423
0.016611
0.020742
0.021411
0.033479
0.021836
0.011017
0.013845
0.022907
-0.014638
-0.002584
0.011935
0.014295
0.031742
0.029217
-0.000235
0.006061
-0.018209
0.005613
0.014638
-0.019276
0.050517
0.009228
0.006437
0.011127
0.014739
0.019610
0.007035
0.020481
0.027271
0.019999
0.023904
0.021504
0.032392
0.012430
0.011392
-0.001183
0.000063
-0.008564
0.044293
-0.009896
-0.013028
0.022402
0.012836
0.021144
0.015182
-0.000412
0.009777
0.040773
0.005592
0.035889
0.038859
0.015852
0.025596
-0.007932
0.008572
0.033582
0.018728
0.020468
-0.000375
-0.003401
0.024042
0.012768
0.054903
0.035187
0.017349
0.019316
0.030100
0.026600
0.034964
0.004746
0.020901
0.046445
0.027483
0.028639
0.026605
0.014466
0.000956
-0.004584
0.048241
0.007084
0.001087
-0.001241
0.033439
0.003173
0.005551
0.013183
0.017295
0.021574
0.012377
0.036061
0.021681
0.023266
0.036559
-0.004465
0.022488
0.012365
0.010807
-0.003569
0.037659
0.027027
0.003028
0.046962
0.028319
0.019710
0.004907
0.011465
0.034185
0.023284
0.003876
0.011987
0.031059
0.019285
0.017541
0.016425
0.028652
0.049692
0.000088
-0.007811
0.025021
0.030397
0.010356
0.033388
-0.009536
0.032899
0.024905
0.030713
0.035668
0.003976
0.029469
0.037938
0.028832
0.019557
0.015938
0.021918
0.024060
0.026749
0.047372
0.051542
0.010217
0.027320
0.019826
0.025495
0.022152
0.034250
0.019683
0.023747
0.040455
0.001458
0.031217
0.003508
0.017998
0.005852
0.017489
0.038636
0.005459
0.006117
0.025823
0.010879
0.033517
0.034656
0.002640
0.041817
0.046687
0.018140
0.039997
0.005982
0.049627
0.005783
0.022424
0.008136
0.006907
0.019342
0.032722
0.007163
0.030441
0.014480
0.011638
0.038592
0.039077
0.025418
0.022908
0.042424
0.049425
0.031295
0.034369
-0.000355
0.029011
0.020310
0.035701
0.045315
0.046427
0.034468
0.042505
0.027958
0.038135
0.045315
0.000153
0.025191
0.011161
0.016792
0.032758
-0.003593
0.037545
0.041677
0.020108
0.018173
0.052351
0.032920
0.038337
0.021415
0.009019
0.037896
0.025338
0.022750
0.009780
0.028759
0.034558
0.028377
0.045402
0.013998
0.016355
0.003552
0.027304
0.016726
0.021750
0.022416
-0.001519
0.010496
0.037666
0.027312
0.035229
0.049498
0.047122
0.029263
0.028582
0.034697
0.048885
0.041680
0.039459
0.040504
0.041660
0.036073
0.010991
0.040958
-0.005680
0.006105
0.002632
0.004556
0.042724
0.029141
0.021599
0.025057
0.018064
0.018714
-0.007512
0.003840
0.020808
0.032363
0.061217
0.018833
0.026060
0.019660
0.029507
0.025293
0.035442
0.032168
0.033786
0.048045
0.073599
0.084256
0.090686
0.121502
0.096088
0.126284
0.147346
0.150792
0.182072
0.172792
0.188922
0.168939
0.148282
0.150696
0.160282
0.113832
0.108534
0.102470
0.077453
0.059874
0.054830
0.072066
0.074340
0.021891
-0.006189
-0.055536
0.075806
0.609776
0.994824
0.613630
0.151984
-0.064356
-0.072095
-0.119293
-0.095722
-0.065359
-0.003260
0.010358
0.030808
0.016880
0.016618
0.039451
0.047948
0.066541
0.050189
0.027107
0.054002
0.046608
0.096771
0.076062
0.107431
0.125038
0.115512
0.135036
0.149121
0.175024
0.181386
0.195365
0.227240
0.210842
0.214827
0.240526
0.279623
0.262002
0.264667
0.266381
0.271812
0.307446
0.286994
0.271127
0.276558
0.242828
0.244003
0.232297
0.211755
0.203025
0.206502
0.169095
0.156744
0.144008
0.106882
0.092091
0.095714
0.089798
0.074218
0.056914
0.080596
0.084411
0.087233
0.043746
0.022546
0.034833
0.028450
0.053105
0.023302
0.039735
0.043317
0.019506
0.023015
0.024499
0.027460
0.055085
0.033366
0.049987
0.024417
0.042656
0.023672
0.054960
0.040571
0.031534
0.035534
0.022945
0.028541
0.036580
0.006512
0.031194
0.052228
0.035344
0.027061
0.070993
0.045391
0.068350
0.076171
0.048840
0.027614
0.023745
0.035894
0.027617
0.025548
0.030307
0.034498
0.022989
0.029892
0.032499
0.043638
0.044967
0.030476
0.017440
0.027148
0.035639
0.009158
0.036131
0.043387
0.021209
0.010294
0.028215
0.026094
0.038337
0.054321
0.019025
0.021722
0.016652
0.035160
-0.008590
0.028802
0.009130
0.042731
0.041646
0.064424
0.052199
0.022735
0.036736
0.045871
0.021277
0.038995
0.036029
0.038110
0.020564
0.049914
0.034995
0.036747
0.044210
0.035926
0.057215
0.036246
0.044435
0.027686
0.058937
0.026299
0.050210
0.029534
0.047858
0.026454
0.049821
0.014640
0.057002
0.017833
0.032878
0.037972
0.040932
0.027404
0.048456
0.059296
0.033035
0.039457
0.026570
0.042611
0.028431
0.030062
0.040574
0.054594
0.049302
0.021008
0.022942
0.036769
0.037576
0.040050
0.033888
0.050528
0.042332
0.043081
0.061488
0.035688
0.023250
0.040533
0.029954
0.048431
0.043711
0.038580
0.055169
0.081433
0.060638
0.007212
0.061052
0.047382
0.025629
0.023583
0.015119
0.034404
0.055002
0.066529
0.049869
0.021973
0.035598
0.053044
0.032236
0.025962
0.010178
0.025664
0.078111
0.043164
0.020375
0.030967
0.054048
0.037556
0.066276
0.047231
0.027856
0.050426
0.022651
0.046540
0.047686
0.044690
0.028029
0.043059
0.045719
0.021399
0.041293
0.027115
0.066688
0.061238
0.060665
0.104899
0.127269
0.121160
0.133506
0.158652
0.148405
0.162551
0.185360
0.182276
0.162616
0.177495
0.168286
0.159240
0.167536
0.116940
0.119999
0.108388
0.074047
0.068168
0.072564
0.054237
0.032523
-0.022607
-0.056865
0.078969
0.583588
1.041998
0.637572
0.155736
-0.032655
-0.078897
-0.103801
-0.067282
-0.067512
0.007861
0.056458
0.044977
0.004989
0.040228
0.071698
0.034569
0.071163
0.051295
0.059232
0.095855
0.083709
0.093766
0.100878
0.096489
0.111571
0.125679
0.132381
0.167449
0.160419
0.202472
0.209569
0.202740
0.217815
0.243756
0.269443
0.300164
0.280203
0.246304
0.290380
0.302626
0.297262
0.288483
0.308273
0.278262
0.235976
0.236608
0.238316
0.229649
0.202632
0.191414
0.169766
0.179393
0.171882
0.136757
0.125477
0.102247
0.111868
0.084353
0.093415
0.074810
0.041590
0.074369
0.053942
0.046398
0.040269
0.047534
0.046668
0.046260
0.073881
0.045182
0.064557
0.055412
0.054525
0.050962
0.035454
0.046356
0.015261
0.047603
0.039554
0.023580
0.057619
0.009788
0.060968
0.035834
0.023514
0.057295
0.033308
0.044955
0.059539
0.018710
0.047928
0.086758
0.063570
0.053095
0.034362
0.037331
0.059653
0.021211
0.037692
0.049938
0.055527
0.054955
0.054303
0.030679
0.057577
0.048365
0.027231
0.058411
0.029670
0.031262
0.067103
0.040451
0.049190
0.067087
0.063457
0.054735
0.074927
0.039066
0.043226
0.057140
0.031745
0.057650
0.045576
0.035869
0.060156
0.049475
0.062124
0.050263
0.026223
0.054973
0.045848
0.032122
0.072157
0.014772
0.032608
0.030635
0.053043
0.047035
0.054851
0.051871
0.027552
0.012175
0.060031
0.027935
0.023045
0.046757
0.014339
0.088139
0.047803
0.024076
0.064265
0.052334
0.035845
0.031355
0.057221
0.059254
0.040190
0.037487
0.055453
0.037609
0.051978
0.042683
0.051245
0.017592
0.071212
0.022850
0.025930
0.062815
0.066009
0.050492
0.070678
0.085712
0.054282
0.040653
0.018716
0.043675
0.052651
0.013619
0.027838
0.041930
0.051899
0.045366
0.019783
0.037128
0.042913
0.045864
0.081830
0.055718
0.027549
0.082858
0.018228
0.049767
0.009950
0.069322
0.036904
0.071732
0.044919
0.057350
0.024746
0.039523
0.065009
0.057415
0.062879
0.011838
0.060251
0.071710
0.040152
0.041553
0.059673
0.048945
0.056231
0.042056
0.040764
0.047291
0.056658
0.046929
0.057507
0.022861
0.050397
0.058881
0.054085
0.038552
0.051610
0.059978
0.071717
0.042648
0.047151
0.052120
0.047813
0.039884
0.048611
0.066028
0.058149
0.050462
0.052868
0.028062
0.044525
0.046958
0.030962
0.080285
0.053859
0.090094
0.099293
0.095541
0.086355
0.130031
0.158379
0.172887
0.193976
0.193935
0.211579
0.189408
0.182573
0.202898
0.193480
0.191183
0.142930
0.143225
0.121083
0.102443
0.101336
0.065844
0.073261
0.055422
0.029994
0.007663
-0.015037
0.076646
0.581118
1.045088
0.653130
0.164897
-0.004044
-0.063609
-0.089362
-0.067488
-0.066868
0.010669
0.035037
0.056596
0.077003
0.048240
0.057840
0.041579
0.053999
0.058680
0.084445
0.115307
0.109111
0.095447
0.111580
0.136294
0.133048
0.155086
0.151784
0.160625
0.176386
0.206470
0.210639
0.223650
0.265437
0.221760
0.258800
0.287553
0.286141
0.296956
0.274987
0.278309
0.297557
0.299875
0.309430
0.290169
0.235043
0.253850
0.261958
0.220562
0.179055
0.188905
0.173214
0.180763
0.163593
0.127270
0.150416
0.133096
0.092309
0.089374
0.082925
0.068784
0.077638
0.066667
0.093555
0.072658
0.066093
0.035323
0.053802
0.039229
0.058860
0.054794
0.063558
0.050495
0.055953
0.052657
0.053572
0.057301
0.055231
0.050678
0.049042
0.037438
0.047569
0.063256
0.047405
0.053512
0.035971
0.046249
0.040638
0.067769
0.081475
0.050502
0.049351
0.035168
0.066656
0.049784
0.044336
0.055027
0.058983
0.061785
0.068251
0.044110
0.074076
0.032158
0.059390
0.037836
0.042046
0.066173
0.060666
0.038726
0.057843
0.053592
0.055076
0.086758
0.046810
0.056041
0.059896
0.030768
0.054542
0.039392
0.045473
0.048450
0.038594
0.057366
0.062278
0.047428
0.023218
0.047174
0.032394
0.076712
0.033341
0.067245
0.029441
0.070961
0.066319
0.048903
0.041397
0.062718
0.077918
0.053266
0.077369
0.075764
0.068596
0.051465
0.076170
0.036829
0.063722
0.053637
0.041406
0.032693
0.035619
0.062379
0.032829
0.042908
0.050235
0.058498
0.049685
0.059581
0.044835
0.045752
0.039752
0.046369
0.057007
0.034485
0.034088
0.043960
0.042994
0.066514
0.034980
0.057618
0.045132
0.034592
0.056299
0.047277
0.051302
0.036179
0.086545
0.062394
0.066275
0.054931
0.048266
0.042762
0.073810
0.063785
0.022744
0.055684
0.065139
0.051911
0.044101
0.053035
0.023742
0.048761
0.050449
0.035487
0.059356
0.041533
0.052550
0.041723
0.051589
0.037174
0.033661
0.053763
0.039775
0.042877
0.059850
0.053906
0.063101
0.027765
0.032319
0.047226
0.085193
0.027326
0.045011
0.056082
0.060534
0.043407
0.040779
0.070876
0.086068
0.082126
0.079583
0.091077
0.113036
0.154145
0.140692
0.157083
0.169729
0.199524
0.187232
0.195798
0.209489
0.211794
0.183570
0.172586
0.173187
0.152614
0.125756
0.098106
0.113387
0.096397
0.073619
0.092675
0.042695
-0.017130
-0.025413
0.071092
0.574122
1.034209
0.667766
0.192531
-0.020828
-0.084488
-0.137541
-0.090473
-0.032126
0.038545
0.050993
0.050362
0.054791
0.027482
0.078706
0.076564
0.038853
0.058203
0.044843
0.068472
0.095105
0.117563
0.109939
0.115785
0.098312
0.143904
0.155693
0.146488
0.198883
0.211617
0.219765
0.210619
0.246667
0.250118
0.278863
0.286930
0.300553
0.313853
0.277184
0.302917
0.316239
0.296101
0.304367
0.290606
0.294316
0.266682
0.271366
0.220681
0.219369
0.221457
0.176665
0.176021
0.178413
0.148774
0.176024
0.109511
0.101777
0.096677
0.106830
0.092043
0.088964
0.043178
0.089602
0.073108
0.081282
0.044803
0.052147
0.060013
0.026617
0.021614
0.061723
0.044389
0.049853
0.058007
0.040686
0.006439
0.033860
0.054789
0.074303
0.084976
0.025867
0.045657
0.026035
0.043024
0.020855
0.068014
0.052021
0.044999
0.043848
0.063592
0.030383
0.052803
0.036487
0.047157
0.063809
0.054984
0.047303
0.045254
0.052235
0.059879
0.064635
0.040361
0.049529
0.072672
0.040252
0.038371
0.059291
0.058068
0.049779
0.055512
0.060907
0.043938
0.070145
0.057250
0.047923
0.047446
0.032677
0.047437
0.027489
0.029541
0.034754
0.029087
0.050745
0.040959
0.048663
0.050970
0.044756
0.049240
0.065349
0.061346
0.029438
0.068644
0.037065
0.075004
0.051282
0.051708
0.030243
0.026410
0.081757
0.044649
0.063159
0.052747
0.060926
0.027956
0.047184
0.048602
0.062289
0.042093
0.046907
0.056460
0.005508
0.034953
0.028908
0.041377
0.053132
0.045018
0.049055
0.053247
0.064733
0.043406
0.062338
0.069413
0.061622
0.071595
0.053039
0.025663
0.068031
0.053796
0.047379
0.023050
0.057477
0.044251
0.049512
0.056433
0.040183
0.034668
0.027139
0.060723
0.052001
0.055682
0.045480
0.045816
0.049373
0.038745
0.046452
0.067631
0.035892
0.030621
0.050943
0.021556
0.051374
0.053213
0.044443
0.023963
0.063485
0.046860
0.048437
0.030437
0.048024
0.060487
0.025573
0.053036
0.030136
0.059139
0.054515
0.043685
0.058897
0.061725
0.064039
0.050892
0.015919
0.042862
0.036394
0.064136
0.055361
0.056284
0.046541
0.052321
0.037230
0.025300
0.042399
0.063518
0.046082
0.026970
0.065882
0.034659
0.052807
0.013848
0.049229
0.034550
0.044962
0.065908
0.033051
0.071044
0.049440
0.061958
0.060489
0.037553
0.025375
0.016460
0.029934
0.025897
0.035085
0.041007
0.029488
0.060409
0.056142
0.060244
0.049397
0.054589
0.083905
0.036550
0.035604
0.052182
0.023849
0.029732
-0.000085
0.041820
0.030192
0.041478
0.069546
0.068377
0.043219
0.032453
0.047125
0.021145
0.048809
0.066335
0.051258
0.056063
0.056642
0.074179
0.054734
0.053730
0.045200
0.058796
0.058173
-0.002817
0.043973
0.042977
0.052188
0.036855
0.048364
0.053843
0.094588
0.102527
0.116356
0.130519
0.135799
0.138294
0.161619
0.202426
0.200568
0.219177
0.210204
0.195854
0.222634
0.167180
0.203486
0.155696
0.142144
0.096430
0.111817
0.068461
0.052570
0.081213
0.062037
0.026599
-0.006835
-0.061868
0.072010
0.606038
1.057505
0.634990
0.185889
-0.021273
-0.095094
-0.136532
-0.073502
-0.032324
0.015398
0.035920
0.060536
0.044594
0.036611
0.042073
0.053722
0.051231
0.031279
0.086378
0.063731
0.070036
0.116366
0.086598
0.109760
0.109773
0.138488
0.159822
0.167948
0.160714
0.169994
0.200034
0.211250
0.231647
0.255060
0.249296
0.299047
0.283256
0.278471
0.315682
0.309164
0.259047
0.267582
0.302975
0.294912
0.296847
0.270746
0.264953
0.239251
0.203903
0.207681
0.178169
0.166565
0.154137
0.142543
0.125970
0.123316
0.098267
0.074964
0.074624
0.078936
0.083688
0.066761
0.096543
0.070608
0.057435
0.031853
0.035050
0.019934
0.057263
0.043678
0.035651
0.074921
0.035487
0.050361
0.033166
0.047819
0.023882
0.064734
0.050654
0.031366
0.032565
0.064515
0.013626
0.056260
0.043047
0.045587
0.038484
0.028381
0.067413
0.038177
0.053287
0.013591
0.036415
0.038194
0.062243
0.055709
0.043283
0.055271
0.043892
0.058312
0.043169
0.034034
0.037124
0.049443
0.056027
0.023471
0.011311
0.083820
0.035528
0.055609
0.037501
0.027616
0.050458
0.034730
0.025772
0.074916
0.024804
0.056335
0.050741
0.032695
0.044667
0.041723
0.022976
0.045926
0.049373
0.034601
0.032522
0.017686
0.025115
0.029576
0.064894
0.015975
0.054635
0.020228
0.043924
0.035980
0.059386
0.057665
0.047736
0.068404
0.040037
0.026454
0.056191
0.041221
0.037746
0.049524
0.024804
0.030910
0.056168
0.029969
0.071507
0.041524
0.017413
0.027639
0.038442
0.025177
0.061194
0.023091
0.008832
0.060155
0.039829
0.027337
0.045984
0.025587
0.025443
0.041767
0.048172
0.049165
0.031125
0.043486
0.082228
0.063541
0.066827
0.076038
0.109834
0.117580
0.145716
0.146734
0.151853
0.165719
0.193481
0.181724
0.180742
0.181563
0.204947
0.185502
0.148064
0.133254
0.106567
0.128758
0.119626
0.110251
0.089264
0.084841
0.035474
0.019537
-0.013747
-0.040241
0.068425
0.580809
1.042528
0.637925
0.155244
-0.019278
-0.097524
-0.139191
-0.091986
-0.029632
-0.022927
0.033982
0.025328
0.073403
0.047999
0.047966
0.036449
0.038418
0.084484
0.061050
0.073519
0.068061
0.085696
0.106444
0.109760
0.112131
0.149017
0.162942
0.156778
0.165648
0.187353
0.176534
0.229216
0.251519
0.223966
0.267846
0.264916
0.261194
0.278208
0.314306
0.291086
0.280359
0.304194
0.280515
0.262772
0.273474
0.248156
0.230237
0.216675
0.218592
0.188220
0.172127
0.147939
0.158579
0.136547
0.099901
0.138045
0.088830
0.059790
0.089561
0.079001
0.060829
0.065412
0.066123
0.031471
0.050871
0.030463
0.047616
0.064465
0.044774
0.014949
0.043200
0.026732
0.049518
0.040044
0.041255
0.048036
0.041188
-0.001543
0.032297
0.013180
0.034030
0.012404
0.037107
0.042356
0.002942
0.040952
0.050139
0.041907
0.025312
0.050798
0.024242
0.037678
0.086133
0.050583
0.069728
0.030620
0.036489
0.034232
0.039626
0.054689
0.045317
0.034996
0.033927
0.024095
0.054586
0.026399
0.055852
0.031858
0.046744
0.022813
0.021405
0.042988
0.021461
0.040832
-0.002609
0.033968
0.063610
0.030877
0.031058
0.018405
0.048920
0.033142
0.034750
0.014143
0.014290
0.038265
0.025551
0.034124
0.022027
0.043139
0.039999
0.000774
0.035300
0.013573
0.038366
0.038170
0.000798
0.045400
0.069053
0.043692
0.033759
0.066676
0.013296
0.047495
0.053910
0.036420
0.021467
0.049746
0.031799
0.055534
0.046502
0.015038
0.016874
0.029347
0.022095
0.044986
0.049144
0.025974
0.028239
0.047806
0.039936
0.042473
0.036731
0.033553
0.022602
0.028725
0.021419
0.031743
0.019160
0.063776
0.045557
0.024152
0.039400
0.011897
0.030266
0.031949
0.027614
0.043408
0.043384
0.025077
0.044394
0.040125
0.029376
0.027665
0.031352
0.025849
0.061307
0.050355
0.030281
0.028465
0.026585
0.048111
0.040437
0.006021
0.043319
0.054150
0.022323
0.033444
0.009533
0.034689
0.015533
0.025921
0.017970
0.037941
0.035992
-0.000494
0.047243
0.021390
0.049889
0.070105
0.066899
0.063999
0.113313
0.106409
0.119229
0.151664
0.160359
0.203573
0.175375
0.213741
0.177041
0.155848
0.172094
0.148742
0.166499
0.113660
0.099871
0.070239
0.067937
0.057775
0.048614
0.058450
0.032905
-0.028492
-0.080064
0.063880
0.575363
1.026143
0.654135
0.160469
-0.069436
-0.116473
-0.099028
-0.117219
-0.070227
-0.016829
0.015805
0.020581
0.020231
0.028209
0.024251
0.020883
0.076925
0.058296
0.061335
0.069862
0.044533
0.065588
0.051021
0.122966
0.109602
0.122331
0.137594
0.135129
0.185744
0.165250
0.195643
0.220916
0.228298
0.199781
0.242330
0.276296
0.253628
0.249986
0.252830
0.251026
0.311187
0.250498
0.279765
0.247703
0.264091
0.220093
0.239811
0.211256
0.205217
0.182452
0.197370
0.147279
0.149095
0.117319
0.136935
0.115041
0.086215
0.088575
0.065235
0.042785
0.061491
0.049439
0.063945
0.053322
0.047489
0.016077
0.050044
0.009858
0.033612
0.054802
0.024471
0.033190
-0.000590
0.044401
0.018424
0.020502
0.004820
0.014152
0.028971
0.037036
0.047132
0.012684
0.037358
0.033506
0.020294
0.043222
0.039278
0.025909
0.030509
0.024387
0.007626
0.013335
0.031799
0.032249
0.018444
-0.015213
0.031160
0.023067
0.012738
0.022014
0.016764
0.034028
0.050565
0.037597
0.032321
0.018864
0.042636
0.039504
-0.000374
0.023943
0.055777
0.023672
0.043612
0.035563
0.011113
0.028534
0.019356
0.016125
0.044443
0.033139
0.033433
0.002679
0.001421
0.028217
0.034984
0.006745
-0.001695
0.014536
0.026245
0.008284
0.050493
0.005208
0.007635
-0.007527
-0.002148
0.042806
0.041983
0.040644
0.032123
0.005858
0.026637
0.053700
0.006721
0.032870
0.017892
0.023546
0.022115
0.026112
-0.016689
0.013506
-0.017217
0.026440
0.021509
0.019153
-0.001346
-0.001501
0.036122
0.014626
0.019262
0.011505
0.013710
0.013723
0.034137
0.000067
-0.013466
0.025309
0.019398
0.036637
0.017524
0.021483
0.034293
0.005916
0.026236
0.020737
0.001120
0.031529
0.027153
0.030649
0.005253
0.015585
0.011843
0.056871
0.033436
0.034497
0.041515
0.020161
0.004926
0.016036
0.036802
0.027618
0.024056
0.003793
0.002234
0.007022
0.023513
0.046765
0.011619
0.020540
0.008073
0.013450
-0.008428
0.015484
0.009180
0.021180
0.022097
0.036931
0.029515
0.035586
0.006618
0.015850
0.032832
0.025613
0.001377
0.034368
0.007501
0.028516
0.025802
0.019352
0.011325
0.001175
0.007056
0.030720
-0.001915
0.000161
0.022889
0.030946
0.039303
0.008083
0.017710
0.016820
0.027807
0.020048
0.019540
0.004113
-0.001250
0.017057
-0.007442
0.048405
0.011499
0.016856
0.012100
0.012617
0.036036
0.007242
0.039526
0.045216
0.053906
0.074546
0.090018
0.081210
0.079892
0.128266
0.137839
0.138410
0.166010
0.152090
0.182060
0.144142
0.164999
0.138503
0.122423
0.096892
0.090845
0.095255
0.092331
0.069684
0.039894
0.065821
0.045191
-0.014533
-0.042147
-0.082806
0.075889
0.581082
1.018205
0.636199
0.156175
-0.083731
-0.098181
-0.126255
-0.152046
-0.069520
-0.017456
0.021454
0.002390
0.017874
0.007152
0.027458
0.024095
0.031419
0.043418
0.026392
0.032927
0.019168
0.043323
0.078628
0.055412
0.093119
0.111698
0.125957
0.153694
0.127251
0.160590
0.150165
0.190388
0.236429
0.221088
0.237104
0.236718
0.221105
0.273035
0.264443
0.269967
0.273631
0.277658
0.231405
0.227993
0.232445
0.251708
0.226049
0.186891
0.195259
0.184250
0.153714
0.146816
0.113202
0.082344
0.102328
0.079241
0.080494
0.072689
0.047791
0.037861
0.043110
0.048217
0.031728
0.006944
0.029854
0.019971
-0.008062
0.004088
0.027999
0.010859
0.009519
0.017229
0.000445
0.005681
-0.024100
0.025687
0.017510
-0.026569
-0.008973
0.019132
0.003646
0.015515
0.043526
0.008752
0.005361
0.017647
0.007992
0.022231
0.012670
0.019488
-0.000450
0.012039
-0.002773
0.008488
-0.004788
0.020716
0.040749
0.023365
0.027827
-0.000011
0.037852
0.047277
-0.023057
0.011931
0.009072
-0.007533
0.020075
-0.010367
-0.002860
0.016993
0.005557
0.004032
0.015878
0.008821
0.009045
0.015832
-0.003399
0.007143
-0.002141
0.024544
0.007393
0.011897
0.004281
0.048441
-0.011250
0.032259
0.015897
0.006001
0.020821
0.013875
-0.006961
0.012402
-0.013497
-0.008938
-0.003180
0.012161
-0.028342
0.006252
-0.001073
0.021486
0.004645
-0.026152
0.041678
-0.013109
0.015867
-0.012912
0.015673
0.019469
0.018567
0.014910
0.008539
-0.002650
0.011658
-0.000474
0.013461
-0.007246
0.016406
-0.017706
0.013014
-0.010474
-0.009379
-0.020244
0.014686
0.016730
-0.005095
0.010936
-0.005993
-0.000419
0.002641
-0.005810
-0.014731
0.025548
-0.005688
-0.001186
-0.006360
-0.004407
0.015576
0.002310
-0.005270
-0.005130
0.012424
0.020814
0.002817
0.000197
-0.004933
-0.001860
0.030932
0.001767
-0.003022
0.003087
-0.009182
0.014754
0.007205
-0.000980
0.013234
-0.008769
0.000696
-0.031756
0.000451
-0.019934
-0.031617
0.016349
-0.009385
0.024146
0.039629
0.049753
0.058082
0.053380
0.084394
0.105124
0.122820
0.111195
0.103920
0.161466
0.165275
0.157043
0.149111
0.135101
0.141673
0.118969
0.094907
0.082459
0.089687
0.052107
0.062295
0.035275
0.008061
0.008529
-0.017393
-0.026933
-0.096663
0.052723
0.547535
1.031903
0.614133
0.132395
-0.088152
-0.144684
-0.150971
-0.155217
-0.095913
-0.032741
-0.022907
-0.003191
0.018547
0.001454
0.050443
0.042133
-0.028746
0.042082
0.017772
0.044470
0.051786
0.053556
0.046291
0.081796
0.074002
0.093978
0.102233
0.088098
0.125622
0.103797
0.159514
0.179005
0.185268
0.214007
0.223646
0.229854
0.214941
0.265667
0.228137
0.223780
0.245490
0.234045
0.259777
0.238618
0.197406
0.187034
0.184154
0.190830
0.170746
0.148525
0.151312
0.140710
0.112045
0.092121
0.081440
0.041271
0.053235
0.069064
0.031765
0.038743
0.007173
0.008995
0.001184
0.011070
0.001549
-0.004603
0.016489
-0.016301
0.006372
-0.008420
-0.027182
0.006295
-0.008914
-0.008128
-0.013582
-0.011383
0.008759
-0.005866
0.011980
0.011567
-0.007428
-0.014296
-0.012838
0.002215
-0.026540
-0.008712
-0.010852
0.005688
-0.012876
-0.003826
-0.016543
0.007839
-0.014450
-0.019139
0.007040
-0.012384
0.008443
-0.002667
-0.024222
-0.015283
-0.012020
0.009254
-0.008922
0.024139
-0.018643
-0.008954
-0.031785
-0.013208
-0.018577
0.003714
-0.020940
0.005793
0.017236
0.008703
-0.015709
-0.006653
0.000363
-0.017817
-0.009689
-0.005717
-0.006799
-0.008963
-0.002030
0.043904
0.003285
-0.045239
-0.005123
0.015867
0.003070
0.000388
0.013012
-0.013935
-0.025447
-0.020166
-0.006611
-0.035136
-0.015548
-0.055972
-0.012717
0.005823
-0.020669
0.012022
-0.006575
-0.011667
-0.026133
-0.001184
-0.018232
-0.008481
0.021238
-0.005989
0.000036
0.014206
-0.017526
-0.002571
-0.005989
-0.015197
-0.012678
-0.012608
-0.000261
-0.010878
0.015475
0.001606
0.002602
-0.021393
-0.015876
0.014195
0.006047
-0.000552
0.002357
-0.013487
-0.016100
-0.016482
-0.017880
0.008193
-0.005753
0.005703
0.018522
-0.014480
-0.009343
0.005682
-0.035413
0.000567
0.007561
0.005791
-0.037130
-0.025435
-0.025740
-0.003139
0.000386
0.013443
-0.014014
-0.024619
-0.010165
-0.002502
0.002351
-0.027838
0.005822
0.013697
0.000660
0.016417
0.026789
0.025650
0.049727
0.085911
0.094817
0.096361
0.130545
0.114189
0.136640
0.148052
0.114421
0.139774
0.105751
0.103757
0.095051
0.095436
0.049338
0.055955
0.021234
0.013794
0.006362
0.019926
-0.048755
-0.041602
-0.104968
0.030620
0.534059
0.987071
0.608005
0.105721
-0.107513
-0.138616
-0.187129
-0.140518
-0.101415
-0.064034
-0.030614
-0.004062
-0.042071
-0.017403
-0.018211
-0.007198
0.004058
-0.013148
0.003362
0.028420
0.013631
0.024104
0.060093
0.067439
0.078133
0.055223
0.087693
0.124769
0.123671
0.132890
0.151565
0.172546
0.162296
0.173298
0.189421
0.207747
0.231155
0.210636
0.247246
0.227072
0.238867
0.228338
0.246218
0.233230
0.180538
0.214930
0.189715
0.183589
0.162798
0.147897
0.144778
0.117944
0.104949
0.071633
0.078453
0.060456
0.024641
0.005728
0.046999
0.031355
0.023874
0.018327
-0.022644
-0.004160
-0.021214
-0.025012
-0.016272
-0.041489
-0.016151
-0.011740
-0.011365
-0.015290
-0.005738
-0.017477
-0.006225
-0.034710
-0.025886
-0.015292
-0.003296
-0.001977
-0.032637
-0.015691
-0.017746
-0.021448
-0.025122
-0.007026
-0.010700
-0.011049
-0.030953
-0.009089
-0.006351
-0.029871
-0.020180
0.003746
-0.018670
-0.014029
-0.019066
-0.008645
-0.039944
-0.034671
-0.013500
-0.022916
-0.003695
-0.011490
-0.018905
-0.012534
-0.033188
-0.012517
-0.021586
-0.013506
-0.026546
-0.026266
-0.003877
-0.033779
-0.022786
-0.034398
-0.023931
-0.021853
-0.010804
-0.028167
-0.017491
-0.012739
-0.008787
-0.002273
-0.008525
-0.003330
-0.009968
-0.030783
-0.055782
-0.036520
-0.011627
-0.023711
-0.037464
-0.003115
-0.028974
-0.024629
-0.010184
-0.028859
-0.035250
-0.028231
-0.003927
-0.006598
-0.019618
-0.022886
-0.026879
-0.031330
-0.047329
-0.037905
-0.026603
-0.056165
-0.004253
-0.010760
-0.012302
-0.022655
-0.044461
-0.007631
-0.029265
-0.022239
-0.022268
-0.063489
-0.019181
0.015776
-0.009194
-0.012749
0.003702
-0.011416
-0.005133
-0.032003
-0.021455
-0.041302
-0.033875
-0.043413
-0.031547
-0.034513
-0.031944
-0.036149
-0.017694
-0.017250
-0.026857
-0.002244
-0.021047
-0.032805
0.014142
-0.025358
-0.022612
-0.025578
-0.016828
-0.021567
-0.049533
-0.022706
-0.028511
-0.040298
-0.025734
-0.036234
-0.022418
-0.012587
0.007150
-0.016758
-0.006167
-0.038688
-0.013464
-0.036962
-0.027043
-0.015757
-0.009820
0.000054
-0.014805
-0.026347
-0.051902
-0.010278
-0.055737
-0.001778
-0.030787
-0.032567
-0.045390
-0.032457
-0.029524
-0.042458
-0.004967
-0.049347
-0.014866
-0.011611
-0.019949
-0.019959
-0.035399
-0.028525
-0.022260
-0.040298
-0.016884
-0.010730
-0.021573
-0.027931
-0.042156
-0.029598
-0.009492
0.003736
-0.044978
-0.058747
-0.049956
-0.029508
-0.015478
-0.033788
-0.057632
-0.011078
-0.042701
-0.031839
-0.033652
-0.025535
-0.052814
-0.027747
-0.040257
-0.024018
-0.004368
0.004963
-0.042697
-0.016614
0.012374
0.013585
0.061647
0.066327
0.091429
0.081076
0.082062
0.117028
0.125487
0.121810
0.129891
0.130648
0.104446
0.079109
0.073165
0.078623
0.054082
0.014334
0.026002
-0.004478
0.000663
-0.010345
-0.079463
-0.088217
-0.130579
0.004186
0.494723
0.969821
0.546080
0.109342
-0.092737
-0.143774
-0.185103
-0.151890
-0.118458
-0.068741
-0.054173
-0.044592
-0.053755
-0.016615
-0.013484
-0.037234
-0.008384
-0.011567
-0.007760
0.005939
0.028790
0.022495
0.026273
0.049567
0.024089
0.073430
0.057366
0.077978
0.119855
0.119193
0.143531
0.144290
0.148945
0.177556
0.189877
0.205581
0.179683
0.254108
0.239940
0.236504
0.203075
0.221279
0.210708
0.176278
0.206256
0.209637
0.155028
0.144707
0.140639
0.141623
0.120870
0.093403
0.090491
0.052960
0.077664
0.028945
-0.006004
0.028268
0.031527
-0.010543
0.005686
-0.018400
-0.026418
-0.040340
-0.042330
-0.029329
-0.020273
-0.054262
-0.058771
-0.030602
-0.022144
-0.039956
-0.030767
-0.022748
-0.038775
-0.021545
-0.031316
-0.023771
-0.045530
-0.036934
-0.030749
-0.018028
-0.021239
-0.009613
-0.025253
-0.014574
-0.039277
-0.029794
-0.008767
-0.009675
-0.040597
-0.029348
-0.031978
-0.034946
-0.054844
-0.038590
-0.026863
-0.046689
-0.029224
-0.036348
-0.042227
-0.031533
-0.011380
-0.044804
-0.036687
-0.035727
-0.033343
-0.041974
-0.009632
-0.051788
-0.040571
-0.046725
-0.041823
-0.025550
-0.046406
-0.058616
-0.038162
-0.019391
-0.056141
-0.023108
-0.048848
-0.021895
-0.037084
-0.086200
-0.058186
-0.021398
-0.031470
-0.039478
-0.024016
-0.023460
-0.045965
-0.028756
-0.042070
-0.039627
-0.042285
-0.059277
-0.040661
-0.043503
-0.033474
-0.044066
-0.031731
-0.022256
-0.053299
-0.031554
-0.042184
-0.007423
-0.036090
-0.029257
-0.018776
-0.026535
-0.026085
-0.026780
-0.039599
-0.040990
-0.049187
-0.032123
-0.042657
-0.030900
-0.027956
-0.031020
-0.073969
-0.016147
0.000721
-0.016573
-0.049615
-0.038615
-0.030468
-0.048537
-0.015516
-0.006640
-0.038578
-0.017343
-0.027551
-0.045509
-0.024400
-0.019885
-0.010982
-0.028254
-0.019633
-0.028994
-0.003606
-0.042683
-0.036036
-0.051321
-0.056870
-0.027787
-0.034793
-0.037670
-0.036162
-0.036205
-0.043423
-0.059858
-0.027343
-0.041553
-0.034971
-0.050284
-0.041369
-0.059336
-0.041205
-0.037717
-0.013121
-0.034467
-0.034296
-0.052112
-0.064937
-0.056826
-0.037326
-0.048685
-0.044981
-0.049176
-0.039569
-0.049239
-0.051641
-0.045496
-0.016313
-0.034366
-0.032200
-0.024946
-0.038966
-0.050219
-0.040031
-0.046058
-0.044394
-0.050254
-0.042356
-0.065248
-0.035322
-0.059397
-0.047082
-0.029076
-0.058725
-0.049127
-0.057686
-0.009454
-0.009222
-0.049674
-0.048765
-0.048905
-0.027117
-0.038321
-0.053465
-0.058520
-0.026778
-0.031227
-0.005651
-0.032243
-0.034262
-0.032208
-0.041238
-0.039211
-0.016438
-0.022461
-0.034738
-0.037337
-0.063397
-0.029451
-0.042457
0.010300
-0.000169
-0.002413
-0.040376
0.008901
0.064256
0.023045
0.067215
0.087906
0.081166
0.092587
0.083471
0.118541
0.094766
0.076450
0.088403
0.079767
0.074830
0.064488
0.026751
0.022206
-0.000663
-0.008975
-0.007355
0.009338
-0.084146
-0.092809
-0.115818
-0.015937
0.523125
0.948637
0.554066
0.098305
-0.095021
-0.136313
-0.188649
-0.179045
-0.121781
-0.080595
-0.069587
-0.019125
-0.001318
-0.040889
-0.002220
-0.027057
-0.052666
-0.021594
-0.007618
0.008232
-0.010327
0.030457
0.035334
0.003700
0.031110
0.020868
0.078623
0.059461
0.061997
0.080431
0.115451
0.144290
0.141438
0.187615
0.164477
0.168009
0.200377
0.215083
0.207243
0.202170
0.190680
0.206440
0.198052
0.185155
0.167990
0.163677
0.201422
0.161232
0.107001
0.129322
0.089061
0.088286
0.065321
0.025040
0.039544
0.003274
0.042373
0.025486
-0.007549
-0.015414
-0.013223
-0.017576
-0.015516
-0.026884
-0.036052
-0.060364
-0.020173
-0.044311
-0.018659
-0.058388
-0.053200
-0.032065
-0.020710
-0.026460
-0.045313
-0.034060
-0.035273
-0.040494
-0.042334
-0.021822
-0.031725
-0.047011
-0.044801
-0.024185
-0.042527
-0.057051
-0.063250
-0.042125
-0.037383
-0.039134
-0.041347
-0.068775
-0.038611
-0.037513
-0.038959
-0.057599
-0.051532
-0.033207
-0.043072
-0.021605
-0.006491
-0.036627
-0.068118
-0.054399
-0.032085
-0.073576
-0.050216
-0.043359
-0.026622
-0.025776
-0.045547
-0.041736
-0.067239
-0.045863
-0.040588
-0.050601
-0.034484
-0.030440
-0.038500
-0.066034
-0.033216
-0.063437
-0.035172
-0.039024
-0.038115
-0.029532
-0.040332
-0.046637
-0.045821
-0.061967
-0.051276
-0.047276
-0.033142
-0.046974
-0.035846
-0.026661
-0.049629
-0.035352
-0.060044
-0.053116
-0.037736
-0.049877
-0.037241
-0.038508
-0.028932
-0.053950
-0.011858
-0.068314
-0.029371
-0.054149
-0.054102
-0.039699
-0.045927
-0.041267
-0.038095
-0.027353
-0.049287
-0.073984
-0.050307
-0.036642
-0.030668
-0.070796
-0.019502
-0.056428
-0.047906
-0.019095
-0.031419
-0.030452
-0.054411
-0.044843
-0.058849
-0.033870
-0.072955
-0.054421
-0.056635
-0.042320
-0.033210
-0.022818
-0.069763
-0.024194
-0.051540
-0.047775
-0.048803
-0.015914
-0.067659
-0.049739
-0.047896
-0.039535
-0.073610
-0.037079
-0.049827
-0.050107
-0.073997
-0.056635
-0.041116
-0.046951
-0.008537
-0.042506
-0.041558
-0.039075
-0.020090
-0.068648
-0.068353
-0.021461
-0.068692
-0.032662
-0.064040
-0.015612
-0.046388
-0.025660
-0.033518
-0.057561
-0.068112
-0.060581
-0.044311
-0.044794
-0.019796
-0.047705
-0.047525
-0.044863
-0.060020
-0.066199
-0.033712
-0.047456
-0.066592
-0.058627
-0.014708
-0.050135
-0.049369
-0.059718
-0.076582
-0.026188
-0.050148
-0.057839
-0.050746
-0.051535
-0.019430
-0.058966
-0.057617
-0.054647
-0.040725
-0.042681
-0.048157
-0.059356
-0.037954
-0.044113
-0.041873
-0.025303
-0.063750
-0.050266
-0.037086
-0.048337
-0.025301
-0.021986
-0.050338
-0.033522
-0.021973
-0.026656
-0.000078
0.005216
0.042823
0.046716
0.061598
0.036957
0.072598
0.080389
0.096234
0.098997
0.098812
0.087927
0.079183
0.060120
0.073275
0.021900
0.018038
0.010957
-0.003873
-0.036654
-0.036910
-0.051675
-0.046386
-0.087111
-0.123143
-0.001644
0.532245
0.920741
0.545892
0.083986
-0.117577
-0.170581
-0.203110
-0.184890
-0.149424
-0.098434
-0.053967
-0.037367
-0.067806
-0.046370
-0.060583
-0.008693
-0.040219
-0.027914
-0.008481
-0.029146
-0.014484
-0.019474
0.014977
0.020201
0.044909
0.061324
0.039655
0.066575
0.125136
0.093622
0.103491
0.134840
0.135498
0.175102
0.142444
0.153448
0.187247
0.211223
0.163755
0.201127
0.202520
0.192499
0.153747
0.178764
0.150973
0.158874
0.147596
0.155085
0.112975
0.101813
0.089684
0.075066
0.051878
0.059391
0.052042
0.014373
0.023706
0.007084
0.005492
-0.025904
-0.031060
-0.023100
-0.031391
-0.033538
0.006679
-0.074408
-0.078430
-0.040984
-0.078513
-0.036329
-0.055434
-0.093579
-0.027846
-0.057336
-0.050826
-0.051082
-0.067487
-0.057058
-0.026798
-0.051379
-0.066276
-0.050851
-0.058288
-0.067816
-0.043507
-0.035699
-0.016592
-0.047137
-0.040120
-0.075907
-0.029958
-0.039647
-0.044908
-0.057812
-0.050864
-0.038917
-0.063631
-0.030448
-0.040247
-0.072842
-0.054839
-0.070684
-0.064481
-0.057587
-0.037940
-0.073043
-0.026675
-0.062776
-0.046999
-0.037121
-0.043452
-0.043962
-0.046403
-0.048940
-0.039400
-0.053358
-0.057470
-0.049073
-0.037698
-0.037783
-0.059452
-0.047146
-0.072560
-0.094285
-0.053342
-0.038860
-0.061246
-0.068396
-0.030569
-0.059795
-0.068629
-0.040452
-0.064850
-0.042655
-0.053916
-0.040430
-0.039175
-0.058626
-0.040961
-0.048982
-0.046997
-0.025840
-0.030563
-0.041264
-0.048557
-0.049775
-0.048027
-0.026978
-0.069179
-0.049686
-0.047086
-0.055650
-0.061005
-0.042171
-0.053005
-0.029780
-0.024152
-0.038315
-0.049421
-0.039105
-0.052134
-0.047999
-0.033382
-0.030687
-0.033200
-0.051640
-0.061446
-0.039033
-0.055871
-0.079388
-0.056705
-0.031924
-0.046683
-0.068456
-0.024385
-0.024779
-0.033567
-0.038662
-0.038647
-0.056542
-0.051978
-0.019751
-0.055953
-0.061054
-0.041562
-0.078659
-0.040409
-0.028734
-0.063811
-0.058324
-0.049989
-0.052591
-0.033184
-0.055231
-0.053204
-0.056175
-0.070639
-0.055737
-0.035019
-0.050148
-0.056655
-0.033553
-0.057602
-0.075308
-0.021752
-0.039740
-0.046649
-0.042554
-0.095682
-0.029383
-0.053081
-0.038665
-0.036612
-0.059756
-0.085492
-0.049872
-0.044030
-0.051475
-0.034235
-0.047400
-0.032526
-0.052538
-0.047089
-0.040665
-0.069312
-0.038020
-0.084893
-0.021769
-0.053819
-0.064107
-0.032969
-0.035098
-0.045972
-0.046334
-0.052311
-0.070417
-0.024608
-0.034089
-0.013759
-0.038709
-0.006404
0.022135
-0.001668
0.032769
0.060897
0.049077
0.084222
0.100242
0.092352
0.101501
0.079381
0.088887
0.078457
0.063266
0.041013
0.037439
0.028675
-0.020121
-0.021201
-0.023548
-0.027187
-0.018256
-0.028222
-0.105161
-0.134516
-0.005538
0.502620
0.945963
0.531477
0.070000
-0.137078
-0.187113
-0.177377
-0.191359
-0.141276
-0.109009
-0.062302
-0.045600
-0.045337
-0.048124
-0.031549
-0.050357
-0.030849
-0.053573
-0.009832
-0.022830
-0.042249
0.002650
-0.001698
0.015032
0.017176
0.032930
0.020613
0.077596
0.052277
0.120946
0.103002
0.096598
0.136868
0.122480
0.157049
0.185896
0.187015
0.191032
0.199950
0.194035
0.213366
0.188860
0.195415
0.205865
0.195473
0.172042
0.129030
0.133915
0.118784
0.078130
0.087885
0.066846
0.050078
0.069382
0.037999
0.035077
0.015077
0.010024
0.023251
-0.026463
-0.030222
-0.026586
-0.040015
-0.053174
-0.030705
-0.037996
-0.037474
-0.048769
-0.026905
-0.053006
-0.046904
-0.056268
-0.040358
-0.065172
-0.056597
-0.065939
-0.069927
-0.064280
-0.045469
-0.067905
-0.029395
-0.062476
-0.054323
-0.058209
-0.048332
-0.042090
-0.065180
-0.073240
-0.041000
-0.056945
-0.086386
-0.065690
-0.046478
-0.048610
-0.043311
-0.043633
-0.054510
-0.057975
-0.051128
-0.045616
-0.040764
-0.054007
-0.057808
-0.049821
-0.062525
-0.036090
-0.063859
-0.015857
-0.066129
-0.032113
-0.077111
-0.036006
-0.057447
-0.072301
-0.074611
-0.067476
-0.031283
-0.050298
-0.041532
-0.060547
-0.077950
-0.041042
-0.043677
-0.031577
-0.073930
-0.047329
-0.071882
-0.029684
-0.052700
-0.040636
-0.050098
-0.023595
-0.078017
-0.062178
-0.078228
-0.060163
-0.054425
-0.047957
-0.060032
-0.049916
-0.030204
-0.021533
-0.013042
-0.054185
-0.050232
-0.044745
-0.044136
-0.034121
-0.059122
-0.025283
-0.035886
-0.065434
-0.070519
-0.045847
-0.045420
-0.038330
-0.054317
-0.036062
-0.018937
-0.046679
-0.045959
-0.057658
-0.090213
-0.048771
-0.078600
-0.018175
-0.038239
-0.045355
-0.059151
-0.068768
-0.062681
-0.070718
-0.055263
-0.016469
-0.054691
-0.069764
-0.075703
-0.052305
-0.051049
-0.051807
-0.062336
-0.048749
-0.061923
-0.044018
-0.043400
-0.048497
-0.055613
-0.045157
-0.045728
-0.055793
-0.040311
-0.041990
-0.044626
-0.063352
-0.018953
-0.046579
-0.052526
-0.040967
-0.034525
-0.075536
-0.066651
-0.030361
-0.034576
-0.044878
-0.039070
-0.058836
-0.015929
-0.056796
-0.047523
-0.045705
-0.022196
-0.040696
-0.040078
-0.022141
-0.054494
-0.046468
-0.024154
-0.034142
-0.057306
-0.031426
-0.048967
-0.052012
-0.056025
-0.053246
-0.016446
-0.028832
-0.049944
-0.048921
-0.054312
-0.036178
-0.028201
-0.077995
-0.069286
-0.046350
-0.053707
-0.040439
-0.037570
-0.049106
-0.051158
-0.038447
-0.043849
-0.064251
-0.045638
-0.048184
-0.067212
-0.031367
-0.054850
-0.053011
-0.043429
-0.051081
-0.043183
-0.033580
-0.043586
-0.003623
-0.011623
0.045504
0.017882
0.022727
0.045985
0.073723
0.082366
0.089562
0.125280
0.121039
0.114164
0.106029
0.067926
0.067144
0.052047
0.056697
0.016943
0.007090
0.009936
-0.009833
-0.022946
-0.018218
-0.065452
-0.122388
-0.149183
-0.005743
0.517152
0.974862
0.566526
0.088925
-0.126708
-0.157380
-0.215985
-0.177559
-0.134325
-0.111513
-0.047082
-0.071446
-0.032855
-0.044360
-0.033086
-0.053424
-0.014369
-0.012914
-0.013794
-0.006309
-0.003681
0.010912
0.008137
-0.007337
0.034337
0.005436
0.049277
0.070771
0.096613
0.090008
0.108377
0.128010
0.171068
0.139527
0.169251
0.172703
0.169332
0.194761
0.184900
0.212237
0.207299
0.202098
0.193120
0.192538
0.187887
0.165301
0.159175
0.160187
0.113863
0.132659
0.074070
0.086476
0.067138
0.048270
0.053975
0.032284
0.014821
-0.014347
0.020113
-0.018543
-0.016399
-0.026396
-0.038382
-0.031641
-0.004502
-0.050250
-0.050868
-0.066215
-0.026279
-0.013522
-0.040403
-0.018968
-0.049719
-0.027707
-0.054149
-0.052296
-0.031765
-0.070254
-0.041189
-0.039923
-0.023847
-0.047074
-0.050567
-0.052144
-0.021495
-0.036371
-0.044706
-0.013831
-0.018615
-0.034775
-0.016575
-0.052743
-0.067277
-0.052606
-0.017977
-0.035475
-0.056879
-0.025405
-0.019374
-0.057341
-0.050889
-0.035217
-0.061430
-0.014229
-0.022874
-0.031058
-0.021465
-0.040772
-0.036181
-0.053963
-0.040810
-0.035090
-0.036453
-0.043849
-0.051006
-0.039137
-0.045541
-0.024650
-0.025531
-0.072015
-0.033287
-0.025863
-0.044865
-0.057333
-0.057440
-0.066080
-0.044227
-0.049243
-0.023721
-0.014591
-0.065239
-0.035810
-0.033120
-0.028952
-0.043491
-0.068815
-0.037593
-0.058179
-0.048902
-0.062311
-0.065309
-0.056421
-0.040882
-0.048120
-0.026749
-0.028549
-0.042371
-0.044175
-0.045106
-0.051932
-0.034223
-0.022756
-0.049633
-0.025592
-0.042433
-0.011217
-0.048561
-0.003048
-0.025651
-0.036727
-0.038506
-0.049783
-0.010984
-0.036175
-0.018080
-0.031004
-0.074960
-0.050841
-0.043487
-0.028887
-0.053887
-0.053820
-0.045946
-0.048360
-0.035005
-0.048957
-0.016520
-0.021216
-0.036866
-0.031866
-0.042921
-0.034647
-0.027725
-0.037697
-0.005752
-0.034259
-0.043934
-0.054837
-0.014130
-0.062943
-0.020642
-0.046873
-0.023152
-0.040065
-0.044661
-0.048481
-0.056676
-0.007257
-0.010549
-0.025440
-0.050588
-0.041086
-0.049454
-0.035619
-0.050916
-0.051727
-0.017761
-0.067560
-0.050887
-0.052539
-0.016816
-0.038116
-0.023243
-0.029198
-0.038572
-0.037783
-0.045957
-0.075511
-0.013055
-0.031782
-0.006179
-0.029740
-0.012757
0.004828
0.007331
0.020317
0.049615
0.033213
0.078917
0.100539
0.091065
0.099911
0.130735
0.125291
0.073012
0.080503
0.090709
0.055263
0.041197
0.020981
0.001656
-0.004377
-0.023395
-0.020323
-0.029336
-0.053566
-0.107246
-0.115311
-0.005850
0.536539
0.984500
0.541901
0.073391
-0.083518
-0.166303
-0.186660
-0.168864
-0.118142
-0.085173
-0.024829
-0.043782
-0.021568
-0.042373
-0.050180
-0.048452
-0.031996
0.010394
-0.004183
0.022532
-0.002889
0.018540
0.010374
0.035850
0.042750
0.071225
0.068306
0.089960
0.118521
0.091978
0.092788
0.136253
0.167981
0.154676
0.204011
0.183949
0.181780
0.206905
0.218176
0.225758
0.207406
0.210110
0.190495
0.187203
0.197042
0.170164
0.139525
0.113791
0.135714
0.106594
0.079520
0.086406
0.103765
0.076275
0.069391
0.060219
0.027059
-0.006654
-0.026838
-0.010726
-0.016921
-0.023158
-0.028613
-0.027632
-0.013208
-0.054597
-0.043502
-0.019827
-0.029450
-0.002518
-0.045769
-0.023027
-0.037600
-0.020454
-0.050899
-0.039423
-0.045486
-0.059587
-0.035064
-0.033484
-0.014102
-0.052065
-0.038481
-0.044013
-0.026256
-0.060873
0.010195
-0.045402
-0.016016
-0.023942
-0.012154
-0.016634
-0.030616
-0.053890
-0.029043
-0.037301
-0.035411
-0.065759
-0.025999
-0.040140
-0.026409
-0.034723
-0.028591
-0.023197
-0.023696
-0.026797
-0.032277
-0.034605
-0.048243
-0.021809
-0.047036
-0.000240
-0.022605
-0.037904
-0.044913
-0.053234
-0.028576
-0.030567
-0.033943
-0.005979
-0.057303
-0.014021
-0.016435
-0.031372
-0.042205
-0.024770
-0.066793
-0.025921
-0.005320
-0.046673
-0.025797
-0.027536
-0.025481
-0.009621
-0.034626
-0.030213
-0.032907
-0.039546
-0.051530
-0.042426
-0.002741
-0.011971
-0.058505
-0.018536
-0.024642
-0.033795
-0.032505
-0.037464
-0.027309
-0.028387
-0.035084
-0.021610
-0.032212
-0.021051
-0.036237
-0.021618
-0.028720
0.006252
-0.051124
-0.022716
-0.055575
-0.030799
-0.047463
-0.062301
-0.046067
-0.025034
-0.014275
-0.021883
-0.038286
-0.040598
-0.035736
-0.007201
-0.031141
-0.012061
-0.043517
-0.025108
-0.011643
-0.041184
-0.034737
-0.037870
-0.014164
-0.044179
0.000027
-0.002921
-0.030840
-0.016328
-0.025299
0.004365
-0.038729
-0.041137
-0.050570
-0.038467
-0.039301
-0.031770
0.000826
-0.000252
0.005329
0.006138
0.030082
0.044509
0.037656
0.123071
0.092471
0.101050
0.124268
0.148680
0.122082
0.129656
0.095768
0.095536
0.107839
0.072324
0.045477
0.018946
0.035869
0.021840
0.018033
0.011766
-0.005815
-0.035617
-0.072350
-0.122249
-0.005898
0.548413
0.970338
0.587680
0.128742
-0.127456
-0.094046
-0.172859
-0.177188
-0.109424
-0.076265
-0.051449
-0.041339
-0.016154
-0.017702
-0.029055
-0.019133
-0.053906
0.011453
0.040594
0.009470
-0.003311
0.032986
0.040720
0.044604
0.044750
0.069637
0.077940
0.103010
0.121465
0.102710
0.151381
0.140894
0.171777
0.159912
0.199392
0.207936
0.191013
0.221021
0.227263
0.240997
0.207323
0.206862
0.217292
0.186815
0.176356
0.184088
0.167896
0.154092
0.127813
0.143881
0.113076
0.122254
0.065843
0.070438
0.059797
0.042115
0.029375
0.018498
0.006710
0.030252
-0.012301
0.011102
0.009217
-0.007425
-0.021820
-0.026555
-0.031668
-0.011920
-0.019239
-0.017939
-0.025149
-0.024068
-0.033073
-0.054085
-0.038049
-0.018763
-0.015811
-0.019487
-0.016726
-0.026390
-0.023571
-0.011509
-0.015466
-0.015627
-0.003220
-0.016795
-0.031569
-0.038286
-0.028458
-0.019532
-0.014801
-0.020576
-0.029251
-0.009057
-0.034605
0.006812
-0.042756
-0.015470
-0.022709
-0.024821
0.014779
-0.012241
-0.016252
-0.029719
0.030732
-0.014358
-0.033099
-0.044733
0.000248
-0.032961
-0.013344
-0.051406
-0.019259
-0.036707
-0.010823
-0.019319
-0.054451
-0.025882
-0.022907
-0.028159
0.000006
-0.011824
-0.020777
-0.039664
-0.001738
-0.010370
-0.020224
-0.009999
-0.025661
-0.031891
-0.048592
-0.032425
-0.037116
-0.027441
-0.025769
-0.015519
0.003219
-0.013201
-0.014088
-0.005290
-0.014510
-0.031171
-0.010301
-0.022987
-0.022702
-0.015027
-0.026073
-0.020455
-0.017942
-0.019387
-0.052171
-0.006883
-0.029022
-0.011503
-0.019152
-0.019293
-0.034057
-0.014537
-0.024615
-0.020072
-0.053934
-0.005636
-0.024385
-0.037149
-0.013659
-0.031364
-0.029495
-0.028540
0.002223
-0.057809
-0.026945
-0.013929
-0.001341
-0.019501
-0.024747
-0.017179
-0.040829
-0.033781
-0.006187
-0.061435
0.007850
-0.016309
-0.023100
-0.030928
-0.049758
-0.031829
0.008434
-0.023086
-0.011510
-0.028438
-0.013048
-0.033147
-0.005751
-0.037658
-0.038778
-0.017528
-0.032087
-0.000009
-0.007561
0.006535
0.034737
-0.027978
0.023027
0.011325
0.030212
-0.011647
0.014916
-0.012943
0.028913
0.041966
0.077535
0.090246
0.113485
0.103144
0.135964
0.128186
0.142364
0.119521
0.106636
0.115901
0.104674
0.079315
0.067115
0.049626
0.054895
0.038015
0.039199
0.018957
-0.012341
-0.005883
-0.066608
-0.074487
0.031285
0.541135
1.008890
0.606874
0.121843
-0.090072
-0.137670
-0.175886
-0.115033
-0.103380
-0.064698
-0.024011
-0.007797
-0.000776
-0.008940
-0.010411
0.021643
0.001446
0.007248
0.021312
0.020886
0.003880
0.021069
0.026443
0.046188
0.048405
0.078275
0.070564
0.112873
0.093541
0.124849
0.158451
0.161301
0.186118
0.193733
0.175002
0.227123
0.208321
0.220896
0.231584
0.257329
0.234265
0.209732
0.218777
0.219677
0.207444
0.211153
0.196230
0.164692
0.133693
0.143188
0.143476
0.115982
0.095016
0.102091
0.054545
0.044159
0.035492
0.082252
0.035451
0.025782
0.018498
0.040792
0.014775
-0.031297
-0.004862
-0.003919
-0.000715
0.012764
0.004883
-0.011933
-0.023306
-0.006945
0.015753
-0.026686
0.048621
-0.025722
0.004606
-0.013178
0.027769
-0.021482
-0.028841
0.001383
-0.024760
-0.019431
-0.004778
0.000972
-0.011208
-0.038476
-0.015050
0.002273
-0.026604
-0.056300
-0.027810
0.001999
-0.008979
-0.037089
-0.001032
0.000092
0.000461
0.009425
-0.020183
0.005756
-0.012298
0.010544
0.001365
-0.012654
-0.008580
-0.021768
-0.003617
-0.007876
-0.010692
0.013857
-0.014848
0.000066
-0.005260
0.009784
-0.030182
-0.006613
-0.020956
0.008257
0.002724
0.004423
-0.020751
-0.001936
-0.023447
-0.002342
-0.008263
0.004021
-0.001808
-0.015894
-0.001910
-0.026811
-0.036063
0.010073
-0.009830
-0.032720
-0.004503
-0.021126
0.004516
-0.006279
-0.015913
-0.014035
-0.027787
-0.011909
0.001911
-0.020212
-0.019669
-0.000898
-0.008900
-0.003694
-0.004658
-0.011687
0.007849
-0.020857
-0.033719
0.006433
0.009779
-0.041086
0.002825
-0.020806
0.013205
-0.013125
-0.028660
-0.005382
-0.020533
0.000029
-0.006333
-0.002996
-0.000289
-0.021546
0.010110
0.015447
0.036718
-0.025540
-0.018223
0.023738
-0.017139
-0.008807
0.022336
-0.017045
-0.006515
-0.013477
0.011829
-0.021152
0.022436
0.008406
0.005146
-0.029601
-0.013965
-0.014640
-0.017024
-0.013524
-0.002835
-0.009314
-0.032654
-0.002957
0.015307
-0.004148
0.006209
-0.013353
-0.010651
-0.017164
0.023977
0.031583
0.005092
-0.000839
-0.029229
0.009371
0.009153
-0.001455
-0.018916
0.004323
-0.015834
-0.025291
0.005281
0.006448
0.001164
-0.024769
0.005160
0.019733
0.033615
0.018568
0.014458
0.052830
0.063125
0.089606
0.078675
0.096620
0.101010
0.128460
0.123305
0.167662
0.123548
0.138742
0.136678
0.134435
0.108595
0.107248
0.085059
0.073859
0.049718
0.053507
0.027272
0.053252
-0.000641
-0.015241
-0.014102
-0.110753
0.009186
0.524913
1.009992
0.594288
0.105141
-0.056862
-0.114326
-0.154882
-0.107524
-0.069992
-0.063048
-0.002208
0.015307
-0.028208
0.010910
0.034467
0.005530
0.042100
0.032808
0.041749
0.044176
0.008123
0.047708
0.041689
0.068793
0.087440
0.096706
0.107487
0.120089
0.112131
0.157166
0.154289
0.184647
0.195360
0.198104
0.189269
0.232129
0.224991
0.231160
0.273710
0.248321
0.266761
0.266508
0.214877
0.229351
0.244762
0.215910
0.195376
0.195839
0.180360
0.160287
0.160232
0.136555
0.107289
0.106120
0.116498
0.081270
0.027974
0.071410
0.034149
0.033272
0.026438
0.022372
0.009710
0.023825
0.004784
0.004091
0.027447
-0.006163
-0.019816
0.012109
0.006052
-0.016560
-0.015313
-0.011493
-0.007901
-0.004763
0.023718
-0.000720
0.025512
-0.004214
-0.001705
-0.005729
0.006382
-0.005718
-0.018027
-0.006776
0.001919
0.029355
0.007587
-0.005185
0.005481
-0.029351
-0.019865
-0.012306
0.012282
0.011308
0.022692
0.002908
-0.009757
0.001401
0.026621
-0.001770
0.035142
-0.004640
0.022539
0.010564
-0.000873
0.017783
0.016826
-0.001336
0.018443
0.034896
0.011830
0.021782
0.026500
-0.006166
0.008171
0.019356
0.002617
-0.000643
-0.009565
0.007303
0.018520
0.017478
-0.014702
0.011404
0.006592
0.010930
-0.014585
0.016096
0.011264
-0.001185
0.012228
-0.008432
-0.007571
0.027938
0.017471
0.001013
0.004351
0.011098
0.004058
0.022700
-0.001221
0.020019
0.004080
0.008324
-0.014490
0.017929
0.002781
-0.011641
-0.004742
0.011170
0.009697
-0.008583
-0.004003
0.020336
0.027475
0.029537
-0.004018
0.016789
0.006120
0.008209
-0.001792
0.032565
0.013765
0.031858
-0.018223
0.009167
0.014181
0.012640
0.001662
0.021471
0.006430
0.023757
0.001678
0.009617
0.023842
0.027892
-0.012293
0.015195
-0.014101
0.013113
0.007762
0.000539
0.030923
-0.004227
0.018869
0.018987
0.025089
0.012679
0.029433
0.011962
0.013048
0.019562
0.010010
0.006132
0.033073
0.005735
0.031083
0.020059
-0.005380
0.004200
0.000814
0.005578
0.044416
0.010491
0.019744
0.021649
0.009234
0.006112
-0.003136
0.028067
0.001823
-0.003855
0.011721
0.011326
0.005109
0.022991
0.035226
0.008131
0.000929
0.009029
-0.004038
0.016601
0.005817
0.008323
0.034563
-0.016714
0.063483
0.033860
0.021280
0.008314
0.002930
0.015130
0.031612
0.005378
0.015787
0.029877
0.012084
0.004470
0.008746
0.005664
0.009221
0.025421
0.018001
0.010193
0.051101
0.037651
0.048992
0.057120
0.075358
0.083884
0.113937
0.122914
0.124855
0.141404
0.155183
0.139931
0.179315
0.165280
0.160754
0.163158
0.152084
0.111498
0.088530
0.078324
0.088380
0.075136
0.046120
0.062783
0.034659
0.002637
-0.034022
-0.076466
0.059094
0.578755
1.023740
0.606878
0.137489
-0.077760
-0.108088
-0.157247
-0.129744
-0.069060
-0.024673
-0.006822
0.031524
0.004561
0.001452
0.061481
0.017454
0.034714
0.076853
0.052187
0.037964
0.042993
0.040010
0.080089
0.061550
0.057624
0.098953
0.117696
0.142434
0.135824
0.168716
0.169154
0.198685
0.195301
0.197917
0.226732
0.245266
0.254414
0.267532
0.276947
0.272421
0.268896
0.246804
0.267140
0.251269
0.227948
0.225001
0.223951
0.185486
0.195355
0.172959
0.177060
0.140956
0.108071
0.107532
0.118397
0.108332
0.080337
0.058701
0.045935
0.064817
0.075763
0.056030
0.046761
0.037211
0.017721
0.028267
0.042892
0.022068
0.067067
-0.009646
0.012125
0.009588
0.018683
0.041869
0.010145
0.017786
0.004984
0.007005
0.003289
0.019971
0.002508
0.026854
0.019409
0.010251
0.042287
0.041335
0.020187
0.020244
0.016684
0.021334
0.039744
0.023002
0.027081
0.025356
0.000690
0.024886
0.028250
0.030620
0.042234
0.006039
0.024028
0.011413
0.036943
0.009948
0.056293
0.035569
0.032284
-0.002054
0.030365
0.026802
0.029383
0.045489
0.020549
0.008982
0.040005
0.037261
0.002724
0.040749
0.063301
0.011379
0.018497
0.034063
0.012469
0.036693
0.029457
0.041831
0.017608
0.030561
0.030523
0.006064
0.016740
0.040217
0.030772
0.020316
0.031860
0.034198
0.036379
0.021374
0.006081
0.034740
0.027631
0.023863
0.013684
0.007328
0.006783
0.034084
0.035189
0.058228
-0.013541
-0.009917
0.011519
0.019238
0.035999
-0.006050
0.026278
0.055030
0.036799
0.011324
0.036695
-0.014415
0.026539
0.020708
0.031218
0.044318
0.030132
0.047299
0.021889
0.030103
0.052562
0.034060
0.030612
0.017410
0.019796
0.007026
0.018790
0.035198
-0.008685
0.024821
0.011971
0.029278
0.008398
0.039966
0.018282
0.023748
0.031135
-0.006619
0.033493
0.051856
0.022383
0.024093
0.024729
0.065762
0.026377
0.013632
0.043372
0.037246
0.047386
0.043348
0.021940
0.015877
0.029795
0.060865
0.056323
0.056620
0.048386
0.089475
0.082621
0.069721
0.104761
0.108977
0.147920
0.157883
0.150032
0.178764
0.184882
0.185993
0.179680
0.132996
0.164855
0.150155
0.117634
0.099318
0.109950
0.037844
0.085265
0.031527
0.037877
0.034294
-0.007413
-0.066483
0.051756
0.599053
1.011336
0.602808
0.173684
-0.046104
-0.072505
-0.117673
-0.102226
-0.062507
-0.008002
0.022016
0.017087
0.031468
0.007131
0.043109
0.019101
0.048257
0.059871
0.046534
0.027863
0.086190
0.075573
0.051913
0.130034
0.123715
0.089300
0.127065
0.133099
0.177685
0.174477
0.177976
0.197992
0.227919
0.241658
0.224971
0.285930
0.258822
0.275873
0.280336
0.297891
0.254302
0.275313
0.271124
0.265813
0.288939
0.239721
0.210978
0.225356
0.246222
0.199661
0.159378
0.143066
0.160186
0.128521
0.143076
0.075380
0.115746
0.094161
0.070446
0.086203
0.024375
0.059911
0.089799
0.024030
0.037834
0.050750
0.030739
0.037323
0.014959
0.034640
0.037243
0.042419
0.044213
0.025114
0.023712
0.027247
-0.000439
0.020577
0.057868
0.026276
0.018851
0.047706
0.041858
0.060948
0.021458
0.029426
0.039189
0.034415
0.016902
-0.006122
0.064986
-0.008639
0.030452
0.033260
0.056274
0.017917
0.049409
0.024885
0.024481
0.048012
0.011560
0.033778
0.035051
0.048481
0.045310
0.011579
0.044584
0.046276
0.014054
0.030189
0.034682
0.033620
0.052920
0.014871
0.027121
0.032058
0.031605
0.052965
0.032186
0.049141
0.038651
0.020877
0.035517
0.038271
0.013779
0.005325
0.044484
0.011947
0.014179
0.018702
0.045928
0.041260
0.014945
0.038574
0.034757
0.045163
0.039804
0.012384
0.026385
0.033144
0.013791
0.046412
0.050156
0.025076
0.043804
0.039280
0.053741
0.037156
0.047923
0.040798
0.037649
0.026347
0.027433
0.022925
0.006399
0.058471
0.030314
0.018738
0.058726
0.060137
0.023274
0.074025
0.031502
0.041739
0.005438
0.033495
0.028665
0.046351
0.036515
0.054353
0.034264
0.048967
0.042042
0.025392
0.015536
0.033812
0.044046
0.059806
0.042060
0.034100
0.066874
0.012602
0.045862
0.041397
0.034394
0.061167
0.034743
0.026678
0.064378
0.041175
0.023223
0.032372
0.054807
0.066078
0.014346
0.029949
0.046628
0.041464
0.008278
0.038292
0.048568
0.024827
0.063197
0.034536
0.077589
0.032246
0.054392
0.070657
0.047636
0.034484
0.036455
0.052849
0.038246
0.012862
0.056653
0.033976
0.039111
0.040128
0.017424
0.049224
0.064545
0.048838
0.017913
0.046548
0.051640
0.052798
0.053562
0.028544
0.009233
0.047856
0.052033
0.026006
0.028523
0.055025
0.053508
0.045557
0.052202
0.023267
0.043550
0.037077
0.062653
0.048888
0.044184
0.036351
0.036695
0.032103
0.048335
0.050863
0.034281
0.027103
0.015681
0.036496
0.057345
0.054174
0.046372
0.041719
0.036556
0.060227
0.042611
0.049027
0.070755
0.042858
0.056043
0.038962
0.054292
0.039476
0.040887
0.021420
0.045387
0.036078
0.068078
0.101815
0.096226
0.111127
0.136670
0.165604
0.157594
0.172264
0.211166
0.187722
0.188872
0.161113
0.186750
0.157830
0.158490
0.118649
0.105680
0.107141
0.083329
0.081666
0.083974
0.071025
0.081580
0.032575
-0.020135
-0.064307
0.063458
0.599732
1.025658
0.651806
0.193986
-0.030733
-0.097147
-0.130477
-0.069661
-0.039205
-0.003954
0.029646
0.027610
0.038844
0.041883
0.055206
0.026584
0.052447
0.065573
0.092033
0.066299
0.101031
0.081658
0.093893
0.090923
0.094892
0.104550
0.121587
0.161367
0.179390
0.168591
0.192393
0.215668
0.244156
0.208232
0.269774
0.274907
0.264974
0.275000
0.274522
0.289660
0.274073
0.290268
0.272889
0.277863
0.285078
0.262047
0.231792
0.228317
0.168870
0.211266
0.179975
0.154403
0.152019
0.124652
0.150336
0.147212
0.119726
0.107574
0.100672
0.063511
0.058611
0.072683
0.059819
0.027311
0.057928
0.048923
0.040722
0.056706
0.042993
0.030418
0.046906
0.048612
0.045007
0.052387
0.010627
0.040571
0.030342
0.027626
0.039618
0.021410
0.087981
0.051579
0.050960
0.044983
0.045298
0.033096
0.062384
0.056526
0.050561
0.060026
0.030340
0.042696
0.055571
0.042714
0.053212
0.034528
0.039142
0.045778
0.035601
0.061918
0.018046
0.024322
0.068122
0.040524
0.049244
0.032939
0.061793
0.039206
0.063506
0.059186
0.046771
0.018085
0.065343
0.062471
0.031408
0.039171
0.075850
0.032044
0.041667
0.066690
0.060816
0.034638
0.031544
0.045253
0.035414
0.071841
0.055290
0.036487
0.043276
0.073300
0.043670
0.059416
0.038360
0.043460
0.053289
0.038081
0.060727
0.049271
0.044318
0.072770
0.044341
0.034652
0.039487
0.024508
0.028937
0.046687
0.051012
0.049966
0.032559
0.038428
0.045111
0.062867
0.040926
0.089054
0.047671
0.038843
0.065238
0.066673
0.048109
0.043571
0.040894
0.031554
0.037172
0.058314
0.057436
0.071576
0.059134
0.067169
0.033736
0.046241
0.045566
0.033555
0.042240
0.022221
0.022276
0.047258
0.062714
0.055342
0.045845
0.059418
0.052790
0.034493
0.043798
0.041137
0.064779
0.046318
0.037569
0.027136
0.039873
0.026155
0.041454
0.048881
0.036186
0.037475
0.046182
0.040885
0.042222
0.061093
0.028634
0.035127
0.046939
0.048916
0.050703
0.056550
0.039427
0.047559
0.032474
0.053418
0.094807
0.066243
0.003538
0.039862
0.068831
0.030897
0.020720
0.064274
0.062422
0.047968
0.043808
0.047800
0.050870
0.036204
0.036679
0.071938
0.070628
0.087275
0.114150
0.097158
0.106675
0.126488
0.146204
0.164597
0.178380
0.162837
0.209701
0.172524
0.205622
0.206239
0.194333
0.197697
0.165938
0.126174
0.113876
0.063195
0.087325
0.098241
0.068692
0.082218
0.062074
-0.011679
-0.039621
0.089755
0.611453
1.026781
0.660584
0.179401
-0.012505
-0.076518
-0.103671
-0.085445
-0.010762
0.014367
0.042657
0.022080
0.042470
0.061688
0.027998
0.051262
0.064553
0.089783
0.059049
0.085109
0.077425
0.089184
0.087864
0.109051
0.134482
0.135782
0.137677
0.170257
0.187993
0.192577
0.219582
0.216892
0.240542
0.263064
0.251227
0.280530
0.291135
0.307470
0.291650
0.295865
0.292030
0.330791
0.295032
0.301279
0.265114
0.266766
0.243050
0.222315
0.244507
0.211936
0.201703
0.172549
0.144983
0.161603
0.147915
0.104351
0.111314
0.106143
0.103548
0.069883
0.071912
0.093559
0.041072
0.053104
0.071719
0.026888
0.053908
0.045002
0.053300
0.064867
0.065028
0.035740
0.066257
0.042827
0.068465
0.046639
0.047759
0.035169
0.069057
0.057088
0.044080
0.058494
0.052888
0.049369
0.017796
0.058553
0.068572
0.049948
0.046944
0.049616
0.048016
0.054564
0.045855
0.051667
0.084465
0.033759
0.043348
0.050623
0.069455
0.046497
0.043026
0.055570
0.070599
0.052235
0.037403
0.069032
0.060429
0.049833
0.055056
0.065628
0.051000
0.041629
0.063361
0.052410
0.053643
0.039032
0.044508
0.033854
0.059476
0.010414
0.044283
0.041072
0.033810
0.034350
0.044781
0.050346
0.056758
0.048651
0.013330
0.043454
0.056341
0.070651
0.060809
0.046140
0.044461
0.057416
0.025100
0.050320
0.055838
0.047182
0.027084
0.048223
0.027727
0.074753
0.052842
0.019354
0.052214
0.033598
0.034747
0.058213
0.082919
0.050167
0.045192
0.057182
0.040327
0.060247
0.053485
0.032236
0.074213
0.067936
0.025299
0.051293
0.072606
0.074389
0.046652
0.062527
0.040292
0.054301
0.058624
0.064070
0.041818
0.025654
0.022910
0.045356
0.038146
0.025963
0.042344
0.049485
0.037146
0.045696
0.028451
0.053329
0.059557
0.037880
0.029632
0.053125
0.078183
0.041297
0.055019
0.066775
0.048656
0.050090
0.052457
0.061335
0.062370
0.038617
0.043623
0.060428
0.067323
0.064287
0.063488
0.062380
0.043569
0.051809
0.058747
0.046600
0.036921
0.050743
0.062128
0.048427
0.050754
0.068444
0.030404
0.039530
0.025730
0.052150
0.034760
0.039069
0.058426
0.054494
0.028629
0.068321
0.032366
0.074981
0.074498
0.035605
0.059036
0.077297
0.039932
0.076398
0.036930
0.069721
0.044320
0.074247
0.063517
0.046120
0.050186
0.080417
0.084415
0.107805
0.115459
0.133515
0.128085
0.135292
0.157727
0.162916
0.204798
0.175681
0.225730
0.209896
0.211796
0.185827
0.182018
0.130528
0.105127
0.108138
0.123512
0.106227
0.073871
0.080571
0.077763
0.065379
0.001611
-0.042445
0.129061
0.605376
1.052146
0.631013
0.187565
-0.027520
-0.080860
-0.145171
-0.064979
-0.027947
0.002099
0.026954
0.038660
0.037064
0.052066
0.060591
0.066366
0.089664
0.064441
0.071765
0.070360
0.079274
0.107178
0.084546
0.086197
0.138868
0.141814
0.180491
0.167634
0.178060
0.183772
0.195953
0.234983
0.242687
0.243297
0.268167
0.293479
0.278657
0.298611
0.305941
0.332272
0.307938
0.298500
0.287745
0.267323
0.283713
0.249278
0.234175
0.241123
0.203164
0.203215
0.172307
0.180972
0.187319
0.140850
0.126327
0.133073
0.110642
0.114055
0.083103
0.070307
0.077213
0.074361
0.069372
0.053489
0.058026
0.041747
0.057599
0.039429
0.064516
0.038346
0.043459
0.025839
0.052881
0.047942
0.049883
0.047827
0.046140
0.063169
0.043782
0.054365
0.051510
0.045082
0.060097
0.024381
0.050198
0.044301
0.039897
0.047705
0.039840
0.063372
0.053005
0.060328
0.060332
0.041567
0.063637
0.066127
0.067110
0.035565
0.052146
0.037549
0.028313
0.043575
0.082753
0.053529
0.064423
0.054036
0.072481
0.044811
0.054354
0.070135
0.063935
0.061778
0.063411
0.035933
0.064287
0.031939
0.028723
0.078861
0.048213
0.040663
0.020343
0.034038
0.048427
0.026551
0.049923
0.032124
0.059441
0.038655
0.031354
0.051114
0.058310
0.040631
0.050973
0.041366
0.035546
0.057476
0.026633
0.036405
0.043892
0.050967
0.046323
0.079378
0.047828
0.066749
0.053579
0.030337
0.070873
0.028370
0.050406
0.023608
0.035097
0.050699
0.051394
0.054375
0.039208
0.060165
0.037269
0.043769
0.043601
0.051276
0.077806
0.032379
0.067736
0.050212
0.028404
0.060200
0.056001
0.049015
0.037029
0.058248
0.056064
0.035631
0.008943
0.042045
0.026702
0.032068
0.024847
0.047634
0.044013
0.028345
0.064862
0.047653
0.072086
0.048544
0.060446
0.055686
0.058048
0.045609
0.039067
0.071682
0.063736
0.049810
0.033338
0.023956
0.035697
0.074630
0.069673
0.032996
0.053637
0.012849
0.028664
0.043197
0.046604
0.056373
0.047624
0.036050
0.052325
0.041834
0.052133
0.068425
0.059276
0.068896
0.034428
0.043086
0.067511
0.058027
0.053010
0.042294
0.035075
0.062417
0.012442
0.038864
0.049624
0.038611
0.063778
0.033510
0.063643
0.055547
0.061887
0.027874
0.022195
0.040512
0.044131
0.034292
0.046718
0.044576
0.042042
0.030473
0.040932
0.041298
0.050106
0.057336
0.070266
0.082022
0.053900
0.028801
0.043470
0.044797
0.038002
0.044531
0.041696
0.027695
0.050725
0.056726
0.043617
0.056166
0.024909
0.082957
0.029059
0.077403
0.075355
0.087912
0.068616
0.090272
0.127131
0.118071
0.174337
0.168410
0.167242
0.189688
0.202971
0.188208
0.199710
0.178836
0.187315
0.153607
0.135893
0.126808
0.102777
0.111391
0.109244
0.074264
0.049239
0.107031
0.041497
-0.013194
-0.045361
0.076467
0.609167
1.039194
0.632656
0.202956
-0.030113
-0.085723
-0.114700
-0.099416
-0.037991
0.010655
0.018812
0.057846
0.024489
0.021253
0.077473
0.081617
0.073669
0.062120
0.054751
0.050625
0.071486
0.091219
0.103736
0.094612
0.091142
0.140930
0.135963
0.174324
0.162070
0.174175
0.188343
0.237596
0.236569
0.239177
0.267665
0.248095
0.275982
0.321178
0.297527
0.289616
0.300570
0.280964
0.293691
0.293514
0.264691
0.305623
0.267805
0.216911
0.196635
0.173039
0.171742
0.174354
0.157493
0.146599
0.129199
0.128236
0.130438
0.060316
0.080431
0.059801
0.067672
0.071185
0.057382
0.062465
0.045521
0.041190
0.047015
0.016177
0.032775
0.075980
0.022257
0.080742
0.042455
0.053280
0.030336
0.047656
0.029316
0.052625
0.026536
0.026222
0.053193
0.044707
0.040636
0.067369
0.035868
0.066121
0.055077
0.034644
0.026378
0.019912
0.054007
0.077066
0.039545
0.051734
0.049983
0.045623
0.035774
0.021958
0.020884
0.031675
0.042389
0.036569
0.038488
0.064797
0.037784
0.068480
0.032000
0.031286
0.047049
0.043327
0.038920
0.040755
0.055921
0.053557
0.038234
0.046606
0.050856
0.037671
0.044012
0.052343
0.050946
0.040588
0.068685
0.063903
0.055987
0.053340
0.079329
0.049335
0.043859
0.030981
0.055351
0.041342
0.051300
0.033934
0.035559
0.065083
0.052861
0.039107
0.044837
0.065506
0.027079
0.060975
0.033641
0.047899
0.039898
0.042476
0.036077
0.065316
0.013726
0.036851
0.026482
0.049920
0.014173
0.033757
0.045561
0.018277
0.037556
0.014892
0.022817
0.010318
0.037371
0.035627
0.029494
0.050482
0.050263
0.023450
0.041899
0.029808
0.051656
0.030048
0.043274
0.054432
0.025590
0.023789
0.041783
0.068185
0.028462
0.031697
0.043691
0.046430
0.054037
0.028121
0.031038
0.062379
0.028548
0.037975
0.012773
0.007598
0.055276
0.036546
0.053079
0.037311
0.046527
0.060102
0.037317
0.036803
0.043766
0.029452
0.013579
0.022125
0.040579
0.044439
0.036092
0.032596
0.038247
0.040493
0.024405
0.026798
0.044176
0.042957
0.039662
0.028974
0.002550
0.031774
0.041998
0.031832
0.032139
0.018647
0.025530
0.023987
0.062186
0.035059
0.039232
0.039411
0.036525
0.014969
0.044178
0.020710
0.051077
0.054807
0.022045
0.046611
0.015880
0.019908
0.058309
0.036234
0.040531
0.049811
0.057518
0.081135
0.093643
0.098434
0.113591
0.096804
0.131669
0.138032
0.152048
0.158138
0.195585
0.184113
0.173869
0.178288
0.149459
0.141219
0.148196
0.117443
0.093427
0.094220
0.082129
0.092491
0.038492
0.063655
0.018041
-0.015746
-0.047813
0.086329
0.572757
1.040666
0.643932
0.182878
-0.020121
-0.090353
-0.072568
-0.103385
-0.065016
-0.011094
0.037055
0.030301
0.029273
0.050286
0.056392
0.046507
0.037196
0.057067
0.057404
0.063157
0.087794
0.073640
0.107859
0.095336
0.085689
0.105914
0.144161
0.129476
0.157259
0.164124
0.223506
0.204245
0.216579
0.241071
0.232963
0.242166
0.274129
0.304698
0.253702
0.296853
0.311837
0.304350
0.305727
0.270875
0.243515
0.276856
0.201511
0.234357
0.226971
0.156171
0.193608
0.146610
0.155534
0.152295
0.138745
0.111073
0.087252
0.094245
0.074013
0.069734
0.058194
0.043424
0.049139
0.035024
0.050751
0.049119
0.042552
0.034403
0.025662
0.042999
0.033148
0.050830
0.018808
0.031878
0.044634
0.046812
0.036196
0.022478
0.049351
0.033305
0.052562
-0.003611
0.033578
0.056193
0.022494
0.030982
0.003461
0.029896
0.009758
0.030373
0.033148
0.023950
0.017200
0.014968
0.043873
0.022953
0.038733
0.029432
0.045177
0.048881
0.037421
-0.001959
0.052102
0.037088
0.032302
0.031781
0.030902
0.028864
0.058113
0.040304
0.020229
0.024548
0.033708
0.059995
0.029480
0.049697
0.071362
0.027072
0.017574
0.030957
0.039006
0.033646
0.026011
0.034543
0.033266
0.020351
0.033485
0.027800
0.012465
0.035244
0.042633
0.032166
0.054416
0.047206
0.024997
0.028790
0.023858
0.041942
0.034280
0.009587
0.026762
0.044441
0.030460
0.018033
0.051863
0.026238
0.010453
0.014412
0.040532
0.037517
0.039716
0.027140
0.034687
-0.006767
0.061033
0.038099
0.038133
0.034447
0.041155
0.053792
0.032169
0.028646
0.054849
0.039746
0.012210
0.032704
0.023534
0.015624
0.018413
0.020370
0.010220
0.027791
0.018348
0.038540
0.026868
0.049230
0.019409
0.043353
0.026740
0.009991
0.013643
0.017735
0.054575
0.036692
0.046991
0.009643
0.051179
0.047421
0.004577
0.024497
0.026150
0.022855
0.041471
0.053939
0.033580
0.023257
0.046177
0.038442
0.027282
0.027548
0.041089
0.010763
0.017362
0.027763
0.032671
0.049008
0.029857
0.058144
0.035875
0.016446
0.019722
0.048907
0.016363
0.024620
0.021847
0.048264
0.031941
0.025715
0.012187
0.058961
0.032253
0.004654
0.024549
0.038583
-0.001566
0.015130
0.022330
0.024054
0.021870
0.002251
0.019533
0.037031
0.015089
0.034059
0.047721
0.050922
0.047552
0.030920
0.045751
0.034514
0.050437
0.035373
0.052412
0.044630
0.058340
0.091969
0.083655
0.072026
0.107636
0.135657
0.121069
0.168670
0.159943
0.156619
0.195631
0.184671
0.152212
0.142131
0.137787
0.169789
0.090857
0.088780
0.061345
0.065571
0.050460
0.059368
0.049400
0.004993
-0.031398
-0.067142
0.085543
0.601575
1.046913
0.630881
0.168372
-0.064601
-0.104683
-0.142468
-0.127792
-0.049911
-0.029019
-0.006463
0.028151
0.012296
0.001832
0.014772
0.055721
0.031608
0.033415
0.052821
0.042456
0.085347
0.072445
0.085492
0.095163
0.083718
0.096177
0.154122
0.130752
0.170512
0.172822
0.204942
0.159644
0.198846
0.217602
0.217271
0.255012
0.270982
0.276889
0.275381
0.275706
0.277053
0.281610
0.272688
0.270700
0.248399
0.219446
0.227232
0.233308
0.191200
0.169984
0.167499
0.137690
0.127183
0.108305
0.125127
0.091601
0.077986
0.070630
0.071380
0.070095
0.033487
0.051747
0.034586
0.029035
0.051508
0.003107
0.000048
0.040243
0.022057
0.050040
0.008711
0.019166
0.000886
0.010136
0.051947
0.006794
0.029028
0.009689
0.024005
0.029564
0.010319
0.011651
0.032954
0.019763
0.006307
0.019768
0.009293
0.014478
0.001152
0.011193
0.013268
0.001105
0.059177
0.012403
0.021049
0.030824
0.046826
0.007493
0.019889
-0.005392
0.026719
0.004130
0.004818
0.013647
0.022637
0.004506
0.056209
-0.005072
0.051125
0.049668
0.040437
0.018415
0.026845
0.023913
0.011063
0.026097
0.043336
0.014264
0.023293
0.009590
0.019765
0.012664
0.005601
0.037082
0.025027
0.010335
0.002257
0.008721
0.019429
0.003074
0.007153
0.014995
0.013772
-0.000630
0.025763
0.031531
0.032959
0.014714
0.011142
-0.009663
0.023115
0.000565
0.042484
0.002322
0.055306
0.005033
0.018594
0.008073
0.008682
0.028099
0.044509
0.011986
0.022493
0.015580
0.007571
0.039533
0.042924
0.027591
0.014998
0.011878
0.010303
-0.009959
0.000198
0.017501
-0.000332
0.041687
0.007183
0.009054
0.035203
0.008206
-0.004462
0.023827
-0.006071
0.074511
0.036188
0.012703
0.038696
0.019485
0.026885
0.009577
-0.007650
-0.016123
0.018087
0.029231
0.018838
-0.000151
0.014498
0.003854
0.015288
-0.002067
0.025305
0.000994
0.039489
-0.008386
0.034964
0.005231
0.015917
0.008756
0.008976
0.013413
0.030386
0.030329
0.008466
0.010552
0.000411
0.032332
0.007166
0.019409
0.024010
0.017979
0.029978
0.013170
0.013418
0.002982
0.000937
0.008325
-0.006052
0.014856
-0.004308
0.032667
0.002788
-0.001708
0.014857
0.008440
0.009581
0.001651
0.023055
-0.012326
0.014098
0.006415
0.017161
0.020019
0.022442
0.020295
0.019623
0.009780
0.037735
0.044719
0.003374
-0.016695
0.011979
0.011773
-0.010858
-0.007351
0.014016
0.001698
0.021054
0.002641
0.028243
0.033554
0.019194
0.068854
0.090501
0.097372
0.121057
0.106960
0.124189
0.154627
0.169590
0.130072
0.154167
0.141347
0.161036
0.133688
0.113275
0.093417
0.063866
0.065838
0.046128
0.040829
0.033176
0.004440
-0.012314
-0.046351
-0.091733
0.044195
0.580603
1.028425
0.610783
0.138642
-0.040065
-0.118246
-0.112968
-0.133671
-0.061236
-0.042256
-0.023660
0.000424
0.025959
0.006034
-0.006757
0.047045
0.005907
0.020258
0.012015
0.024640
0.022875
0.049627
0.063894
0.068074
0.081511
0.066158
0.094426
0.135425
0.140783
0.156428
0.140951
0.166090
0.161015
0.217296
0.224940
0.223374
0.242259
0.260454
0.250184
0.252162
0.248452
0.240790
0.264892
0.235566
0.242854
0.241218
0.185052
0.210109
0.191989
0.163876
0.169976
0.143802
0.154914
0.090259
0.090148
0.070122
0.079738
0.075251
0.058635
0.031615
0.029417
0.048841
0.030299
0.033833
0.013367
-0.011310
-0.008734
0.016702
0.012808
-0.015896
-0.021855
0.004232
0.010245
0.000263
-0.000695
0.016570
-0.012518
0.006106
0.015227
0.022033
0.006361
-0.007457
0.006632
0.002594
-0.003120
-0.004318
0.002333
0.029730
0.015770
0.017734
0.022526
0.001113
0.021742
-0.011573
-0.025553
0.013733
0.015658
-0.017867
-0.016967
0.003293
-0.019845
0.004676
0.004670
-0.002359
-0.012782
0.005415
0.007576
0.003944
-0.006258
0.005247
-0.013769
-0.006076
0.009424
-0.009976
0.017769
0.022704
-0.023648
0.006195
0.028521
-0.010569
-0.008145
-0.008202
-0.012046
-0.029351
0.035408
0.016225
0.027999
0.013045
0.027545
0.007218
-0.021539
-0.000283
0.005689
