ecg_amplitude
0.008565
0.044728
-0.030027
-0.002919
-0.003978
0.003188
-0.018498
0.005280
-0.056374
0.069375
0.008765
-0.009096
-0.027964
0.065562
-0.002549
-0.026222
-0.002823
0.049018
0.017894
-0.035994
-0.031705
-0.083766
0.009919
0.020090
-0.041694
-0.018146
0.002883
0.008707
-0.000552
-0.018840
0.038502
0.043586
-0.026530
-0.012545
-0.029045
0.043965
-0.017880
0.007838
0.027026
0.019800
0.046728
0.025778
0.007568
-0.035890
0.025526
0.074762
0.004912
-0.074349
-0.139020
-0.043259
-0.039592
-0.020757
-0.015488
-0.015251
0.011844
0.028958
0.076661
-0.035575
-0.020320
0.040112
-0.005941
-0.012617
-0.005131
-0.050165
0.069394
0.054051
0.032224
-0.017330
-0.001030
0.039336
-0.011599
0.034288
-0.009206
0.045136
0.023626
0.043511
0.002174
0.021767
0.025454
0.016893
0.027299
-0.036898
-0.027601
-0.030959
-0.009956
0.014054
0.003294
0.057229
-0.000134
-0.018697
-0.008954
0.039105
-0.040144
0.066136
0.078691
-0.033407
0.002661
0.017533
0.003825
0.089624
-0.059150
0.003193
-0.051416
-0.038190
0.029762
-0.043832
0.016805
0.019289
-0.007099
-0.045648
0.026367
0.022317
-0.000502
0.083393
-0.034915
-0.057399
-0.055704
-0.036133
-0.021981
0.018634
0.039675
-0.010115
0.060315
-0.021311
0.011548
0.073766
-0.026631
-0.004669
-0.034797
-0.012991
-0.027193
0.004478
-0.010381
0.076887
-0.019835
0.019386
0.005079
0.006025
-0.001788
-0.030650
-0.019192
0.039799
-0.013948
0.049776
-0.004464
0.025544
0.065942
0.014504
0.023638
0.001779
0.010522
0.021448
-0.002466
0.006912
-0.017442
0.024180
0.045840
0.027061
-0.028046
-0.010537
0.040867
0.015269
0.053003
0.013073
-0.002639
0.004328
-0.009381
-0.003765
0.003088
0.026388
0.024767
0.022168
0.018055
-0.013939
0.065681
0.016054
-0.052670
0.000148
-0.030722
-0.071254
-0.045142
0.017175
0.046649
0.012940
0.010247
-0.004031
0.060834
-0.016422
-0.008517
-0.028911
0.033313
-0.028640
0.025112
0.073791
-0.009011
0.057679
-0.000327
-0.086013
-0.020843
0.016780
0.003296
-0.035976
0.001871
0.018805
0.003994
0.009724
0.032728
0.060406
0.025875
0.015541
0.013139
-0.049369
0.001811
0.055361
0.052310
-0.015712
0.013769
0.003697
-0.018990
0.049090
-0.006741
-0.008654
0.016129
0.001863
0.015922
0.021489
0.037481
-0.072472
0.038292
-0.008384
0.019190
0.036922
0.079190
0.007272
0.050906
-0.026648
-0.005733
0.054138
0.010161
0.061252
-0.002066
0.102009
0.067809
-0.033097
0.020654
-0.012524
0.008567
-0.010703
-0.021373
0.074488
0.041233
0.041161
0.050959
0.010011
0.060265
-0.007372
0.015494
-0.010332
-0.007083
0.016711
0.044238
0.088337
0.004881
-0.020326
0.010330
0.055601
0.032633
-0.054142
0.007998
0.067360
0.011657
0.010590
-0.027309
-0.019665
0.007667
0.049014
-0.008407
-0.057566
0.027344
0.008063
0.034057
0.045982
-0.001668
0.068503
0.062145
0.132518
0.048558
0.085662
0.069570
0.127384
0.142052
0.173142
0.200882
0.183200
0.111872
0.170971
0.139283
0.120376
0.156946
0.151516
0.119044
0.082446
0.050428
0.077366
0.062240
0.058829
-0.033301
-0.047105
-0.114914
0.004993
0.504251
1.020717
0.609170
0.089496
-0.084548
-0.144221
-0.182553
-0.108412
-0.097323
0.011781
-0.005009
0.050829
0.034075
0.056329
-0.029020
0.041754
0.106331
0.028925
0.009839
-0.003725
0.106033
0.087130
0.085023
0.132000
0.079051
0.119610
0.072276
0.109683
0.144858
0.140217
0.275998
0.133769
0.197788
0.251682
0.224443
0.188170
0.302741
0.234290
0.307395
0.293725
0.235367
0.307618
0.266034
0.288824
0.272036
0.234320
0.255372
0.249498
0.149312
0.144690
0.180758
0.145870
0.141996
0.115527
0.122153
0.079927
0.034065
0.093054
0.098740
0.046067
0.052841
0.035575
0.042856
0.028125
0.015547
0.054757
0.010652
0.030965
0.041944
-0.007244
0.023567
-0.014496
0.005644
0.006389
-0.033952
-0.022907
0.027193
0.080248
0.030747
0.060581
-0.014444
0.024570
0.057242
0.068254
0.062937
0.066137
-0.004892
0.073289
0.021769
0.035276
0.073455
0.048259
0.022514
0.069296
0.004718
0.030731
-0.025499
0.102072
0.095800
0.003661
-0.019203
0.047170
0.028430
0.037170
0.018521
0.019482
0.016969
0.030385
-0.020681
0.067871
0.041503
0.017472
-0.000535
-0.031622
0.010458
0.005188
-0.030123
0.061438
0.028904
0.049367
0.011817
0.051768
0.050468
0.046748
0.026726
0.015528
0.004649
0.016660
0.053546
0.082467
0.127809
0.000846
0.062428
0.104146
0.050161
0.162496
0.140643
0.038265
0.135176
0.196424
0.158465
0.110055
0.182214
0.149954
0.148509
0.172139
0.119988
0.102513
0.130155
0.075767
0.082079
0.040129
0.081629
0.071174
-0.000237
0.047316
0.024650
-0.101117
0.074591
0.573579
1.006639
0.616068
0.076967
-0.028668
-0.046100
-0.143461
-0.161614
-0.063960
0.007766
0.014370
0.000306
0.009808
0.041507
-0.009899
0.055777
0.038100
0.037008
0.099937
0.041410
0.062827
0.130047
0.084541
0.101628
0.164049
0.109717
0.136445
0.138417
0.103096
0.168460
0.195398
0.239551
0.266754
0.237193
0.257393
0.259052
0.330108
0.273004
0.271717
0.300143
0.343958
0.303842
0.244203
0.300433
0.211069
0.179663
0.197376
0.201393
0.227908
0.214673
0.191085
0.164201
0.208127
0.156062
0.068833
0.122290
0.071252
0.075339
0.092216
0.113177
0.015668
0.129320
0.036389
0.041361
0.069342
0.014130
0.013699
0.032851
0.038300
-0.011345
0.017997
-0.004480
0.056834
0.008613
0.004226
-0.013267
0.013443
0.072645
-0.031107
-0.012264
0.009670
0.020540
0.023954
0.068819
0.071882
0.061329
-0.045265
0.026626
0.068507
-0.023040
0.012320
0.008479
0.059316
0.012887
0.029526
0.034465
-0.018312
-0.001050
0.021632
0.024028
0.023612
0.029064
0.051286
0.116600
0.062127
0.085591
0.043791
0.064817
0.054757
-0.030146
0.020001
0.082407
0.019218
0.061393
-0.036124
0.019925
0.037782
0.054213
0.043770
0.074335
0.045394
0.101527
0.054477
0.076765
0.101620
0.120515
0.154030
0.170865
0.181982
0.196058
0.176961
0.199636
0.146074
0.153990
0.175973
0.154693
0.136841
0.063986
0.106153
0.086978
-0.038549
0.017629
0.058835
-0.063342
0.014686
-0.045071
0.038256
0.607160
1.091372
0.644304
0.150370
0.000621
-0.068149
-0.109801
-0.110476
-0.078964
0.043549
0.012823
0.013501
-0.009358
0.013014
0.082747
0.008401
0.024266
0.028986
0.067552
0.077128
0.051753
0.119398
0.087421
0.083297
0.104812
0.068084
0.086496
0.141607
0.146897
0.178504
0.174388
0.164230
0.210491
0.241145
0.223002
0.233684
0.281090
0.274859
0.276480
0.232134
0.278199
0.283244
0.256911
0.239541
0.214525
0.259483
0.284999
0.262266
0.215460
0.176679
0.153541
0.185330
0.195805
0.102451
0.174507
0.111302
0.073951
0.048822
0.014583
0.045423
0.079887
0.102446
0.057300
0.027770
0.041892
-0.037661
0.085460
0.015535
0.043400
0.075837
0.012731
0.055986
-0.004736
0.086698
-0.042403
0.017364
0.033924
-0.003881
0.038906
0.013274
0.009767
-0.021352
0.032260
0.056657
0.008002
-0.001269
0.066984
0.064444
0.036438
0.057139
0.021695
0.019048
-0.041789
0.039313
0.049707
0.078821
0.023645
0.050959
0.021128
0.071657
0.037942
0.050137
0.023789
0.002536
0.067735
0.044972
0.083350
0.040257
0.044048
-0.002871
0.013106
0.126656
0.090105
0.002349
0.021830
0.110912
0.038336
0.123314
0.024450
-0.002358
0.035525
0.029100
0.009638
0.035296
0.077613
0.096063
0.027012
0.072668
0.070311
0.064687
0.060900
0.011101
0.050272
0.038935
0.069788
0.058155
0.135152
0.053084
0.124186
0.177987
0.179054
0.158456
0.155379
0.218851
0.147583
0.210492
0.209069
0.209043
0.203428
0.135430
0.223571
0.141550
0.158175
0.086170
0.087495
0.119947
0.006944
0.094870
0.019220
-0.039050
0.008186
0.090037
0.697974
1.037719
0.582109
0.140703
-0.097897
-0.094124
-0.091192
-0.188732
-0.006346
-0.025867
0.014436
0.100392
0.070210
0.039131
0.015988
0.085096
0.059257
0.051892
0.093631
0.074260
0.084306
0.085706
0.102754
0.109676
0.071787
0.130336
0.174362
0.146414
0.144394
0.181330
0.185964
0.187716
0.172660
0.266617
0.264278
0.265280
0.266142
0.271951
0.263721
0.356875
0.297537
0.290004
0.275390
0.311768
0.259684
0.291586
0.270718
0.196279
0.219483
0.189152
0.181471
0.224359
0.124329
0.129874
0.123189
0.052557
0.089300
0.058607
0.065648
0.070921
0.093663
0.091556
0.065142
0.030170
-0.006222
0.021415
0.032272
0.057933
-0.031557
0.041203
0.017376
0.076773
0.020020
0.027664
0.070069
0.083930
0.047162
0.107389
-0.001131
-0.030546
0.047738
0.018360
0.045936
0.008251
0.059532
0.029078
0.084860
-0.011123
0.099733
0.045767
0.040513
0.053542
0.041292
0.026792
0.098288
-0.009562
0.045782
0.030794
0.108919
0.103831
0.120521
0.039033
0.066460
0.097780
-0.012244
0.052390
0.006829
0.049295
0.056208
-0.017917
0.028680
0.014257
0.065205
0.083100
0.018976
0.067123
0.022058
0.047409
0.094453
0.025789
0.117538
0.126164
0.135737
0.086606
0.100708
0.148398
0.171367
0.255204
0.194564
0.187095
0.210224
0.174493
0.191949
0.145544
0.144751
0.094861
0.126767
0.128238
0.086358
0.012643
0.105396
0.007242
-0.015864
-0.087550
0.051055
0.554398
1.060584
0.677730
0.174817
-0.047293
-0.087419
-0.099163
-0.051640
0.019138
-0.020277
0.010179
0.038433
0.021004
0.062082
0.024767
0.077573
0.024258
0.038494
0.047846
0.115562
0.104974
0.085399
0.057000
0.128034
0.063738
0.120135
0.174776
0.133797
0.142839
0.239218
0.210509
0.219025
0.241382
0.327799
0.218486
0.287865
0.286039
0.317866
0.287204
0.300829
0.356720
0.284727
0.289886
0.223006
0.294538
0.258491
0.296006
0.169061
0.259741
0.147717
0.201442
0.177634
0.201265
0.121432
0.119363
0.112044
0.042258
0.075864
0.082947
0.042650
0.103737
0.093234
0.034975
0.075832
0.023198
0.063706
0.077656
0.089417
0.048138
0.067285
0.074657
0.065452
0.082997
0.048528
0.029896
-0.037086
0.038668
0.014765
0.066822
0.085431
0.023811
0.072312
0.073545
0.028945
0.053537
0.055450
0.071381
0.074608
-0.009462
0.008548
0.032894
0.060325
0.108015
0.051933
0.110959
0.113373
0.031471
-0.012333
0.057976
0.043550
0.033532
0.012171
0.064096
0.030946
-0.020181
0.000727
0.042947
0.027179
0.077444
-0.001820
0.026052
0.064817
0.143113
0.052005
0.042707
0.028050
0.060885
0.067790
0.040716
0.071137
0.104897
0.145620
0.109068
0.128259
0.173353
0.193879
0.149922
0.200998
0.227959
0.208128
0.228150
0.243407
0.180744
0.231485
0.185084
0.194857
0.111158
0.147530
0.122925
0.074455
0.115694
0.077882
0.087937
-0.026031
-0.017672
0.027951
0.620683
1.037203
0.565989
0.127285
-0.006064
-0.092031
-0.097298
-0.071340
-0.059730
0.003581
0.026744
0.016411
0.038938
0.037195
0.061455
0.024464
0.049267
0.080069
0.058100
0.112632
0.077780
0.117720
0.111481
0.092586
0.091376
0.116122
0.146292
0.251001
0.183744
0.249102
0.190163
0.307652
0.251504
0.280004
0.283756
0.247350
0.317726
0.294658
0.286582
0.300230
0.283496
0.301822
0.306361
0.269637
0.294242
0.267980
0.239840
0.260569
0.209115
0.232623
0.169672
0.159813
0.126824
0.113597
0.147672
0.110766
0.082140
0.098373
0.170080
0.025251
0.110228
0.107178
0.074362
0.076017
0.001921
0.063850
0.082807
0.022860
0.055348
0.034677
0.036687
0.040306
0.006585
0.081413
0.112594
0.034191
0.078600
0.075937
0.038534
0.076972
0.139512
0.057864
0.097177
0.057456
0.027185
0.007088
0.078161
0.061903
0.079259
0.113890
0.085614
0.107042
0.006973
0.027401
0.037373
0.109552
-0.007213
0.011039
0.080229
0.037592
0.029036
-0.010293
0.027324
0.045693
0.001615
0.054548
0.005593
0.006174
0.086822
0.069120
0.111175
0.051649
0.046049
0.091116
0.008377
0.052035
0.067412
-0.016893
0.079824
0.000195
0.033669
0.026211
0.052164
0.052185
0.038604
0.049071
0.052173
-0.061752
0.064351
0.044437
0.046536
0.095809
0.063626
0.095666
0.143804
0.179005
0.177679
0.228741
0.104564
0.181213
0.181632
0.149003
0.200927
0.188119
0.150990
0.126997
0.109266
0.142861
0.116355
0.059220
0.060403
0.163204
0.042323
0.061795
-0.017221
-0.056975
0.137978
0.696395
1.008373
0.670581
0.171432
0.000025
-0.067799
-0.120990
-0.098986
-0.077742
0.071264
0.061001
0.055155
0.051976
0.024279
0.053688
0.042398
0.076714
0.038561
0.046014
0.117060
0.090385
0.102157
0.089112
0.097479
0.097037
0.081036
0.144827
0.195647
0.085318
0.187991
0.227076
0.310130
0.285735
0.270887
0.249981
0.323146
0.294609
0.369326
0.331240
0.303900
0.299769
0.304470
0.291774
0.281776
0.146539
0.199582
0.252242
0.269416
0.193709
0.278876
0.234878
0.169535
0.180685
0.099501
0.139392
0.073791
0.110813
0.090653
0.128076
0.066671
0.065580
0.093401
0.136753
0.111524
0.047650
0.053406
0.075792
-0.012659
0.031254
0.023934
0.004634
0.028165
0.063958
0.101428
-0.017275
0.088168
0.090670
0.073850
0.084908
0.099636
0.050186
0.043277
0.066284
0.069029
0.050721
0.119563
0.047746
0.078230
0.065114
0.059285
0.023862
0.079744
0.119411
0.059156
0.047623
0.039143
0.025818
0.104938
0.128828
-0.039984
0.036506
0.029674
0.092225
0.113433
0.041121
0.033934
0.030781
0.041799
0.014223
0.082067
0.064032
0.117768
0.056784
-0.002686
0.026597
0.065726
0.018150
0.012926
0.065963
0.066942
0.063491
0.062450
0.049287
0.113536
0.114982
0.078377
0.079838
0.109293
0.121806
0.152289
0.182282
0.208380
0.199577
0.230672
0.200101
0.206351
0.240818
0.224658
0.129204
0.110325
0.086584
0.131182
0.113560
0.024917
-0.000117
0.081525
-0.017604
0.009552
-0.001282
0.126292
0.560883
1.072258
0.623024
0.262850
0.017719
-0.108009
-0.064056
-0.119494
-0.064453
0.022026
-0.022743
0.045539
0.003616
0.016519
0.038134
0.061108
0.109848
0.065148
0.068649
0.087244
0.148062
0.096015
0.102843
0.087489
0.139162
0.127118
0.153455
0.160931
0.220636
0.273026
0.200242
0.207002
0.245505
0.288841
0.309023
0.230990
0.325167
0.274835
0.284810
0.277984
0.264902
0.261210
0.248820
0.322507
0.354328
0.234009
0.289159
0.288433
0.287369
0.192834
0.227174
0.192965
0.135897
0.133798
0.126424
0.177081
0.125289
0.126604
0.127942
0.119886
0.147038
0.041248
0.113501
0.070334
0.051833
0.061069
0.070916
0.006232
0.039710
0.056719
0.040080
0.020920
0.120557
0.102693
0.057223
-0.003272
-0.048573
-0.002409
0.056126
0.017384
0.058388
0.021626
0.033369
0.014581
0.070142
0.073125
-0.019015
0.019704
0.049233
0.068625
-0.003886
0.095008
0.005223
0.077814
0.009052
0.075480
0.045427
0.025118
0.042469
0.026893
0.063618
0.050589
0.063989
0.024160
0.051003
0.017094
0.097337
0.083827
0.073474
0.091490
0.068229
0.045722
0.078966
0.080630
0.026246
0.068367
0.073048
0.026069
0.009573
0.084184
0.045124
0.051415
0.056273
0.051669
0.052471
0.037541
0.067237
-0.028418
0.061321
0.048128
0.037640
0.062356
0.099595
0.077389
0.063089
0.087448
0.047294
0.057318
0.057110
0.046043
0.146783
0.139464
0.135438
0.227217
0.202790
0.214302
0.159287
0.118644
0.138822
0.210349
0.211698
0.095133
0.129692
0.169783
0.175392
0.134840
0.086299
0.097286
0.089840
0.028502
0.035651
0.035096
-0.036214
-0.083152
0.081717
0.567531
1.115682
0.623395
0.216940
-0.032223
-0.016995
-0.082344
-0.114374
-0.067949
-0.005304
0.027238
0.061935
0.096316
0.019720
0.075814
-0.019455
-0.028717
0.012692
0.074098
0.096333
0.087914
0.082919
0.066281
0.127200
0.122005
0.122107
0.143424
0.173465
0.173087
0.181734
0.264593
0.262829
0.273910
0.226337
0.291315
0.305500
0.270371
0.266215
0.320638
0.246858
0.304331
0.263291
0.280579
0.291549
0.305790
0.272932
0.274399
0.200477
0.164028
0.172095
0.169949
0.192827
0.139206
0.161291
0.092912
0.141094
0.060659
0.102856
0.113104
0.061685
0.160840
0.044130
0.019856
0.113835
0.113490
0.063090
0.025414
0.086023
0.097830
0.015863
0.072326
0.043071
0.071750
0.134261
-0.004188
0.068038
0.061721
0.015436
0.035113
0.082431
0.014013
0.048624
0.036693
0.066500
0.026229
0.039729
-0.044953
0.087382
0.057859
0.033205
-0.068386
0.079294
0.143825
0.081113
0.044776
0.028687
0.089079
0.023738
-0.012298
0.038632
0.030714
0.046871
0.026812
0.071050
0.064158
0.000889
0.022729
0.066559
0.012733
0.006433
0.111521
0.042314
0.079978
0.106701
0.023136
0.077283
0.054159
0.052897
0.046775
0.011825
0.026877
0.073949
0.091882
0.057321
0.065280
0.150446
0.070504
0.095483
0.131753
0.151798
0.142996
0.248221
0.197018
0.207073
0.131744
0.247230
0.226245
0.224539
0.207853
0.111034
0.120901
0.090468
0.129697
0.111071
0.032329
0.078646
0.061212
0.041693
0.001174
-0.045711
0.118242
0.579078
1.057049
0.662454
0.158423
0.014426
-0.130467
-0.138936
-0.093986
-0.037547
0.000352
0.046461
0.008098
0.081083
0.045985
0.070910
0.049038
0.034740
0.066538
0.071589
0.111230
0.085591
0.125920
0.129469
0.090100
0.142547
0.176189
0.105960
0.156580
0.159502
0.207018
0.188184
0.221584
0.225543
0.241994
0.302927
0.244147
0.276819
0.359643
0.283204
0.254570
0.333758
0.258115
0.293530
0.295049
0.257693
0.251268
0.266845
0.240956
0.247130
0.193740
0.175379
0.172443
0.166155
0.203919
0.149431
0.157253
0.124030
0.063314
0.105795
0.048623
0.077671
0.013688
0.097925
0.105137
0.069741
-0.002466
0.015211
0.022563
0.015571
0.036540
0.053594
0.041971
0.012679
0.030625
0.102172
0.024987
0.075763
0.105526
0.045025
-0.026994
0.074678
-0.015679
0.062723
0.069197
0.065133
0.020066
0.047190
0.061945
0.058787
0.117400
0.045436
-0.035367
0.040342
-0.035911
0.047585
0.102855
0.072029
0.019977
0.020144
0.037974
0.010190
0.048689
0.076040
0.064573
0.020083
0.003947
-0.020988
0.078472
0.007485
0.051240
0.059334
0.002660
0.075030
0.073623
0.075535
0.032652
0.022774
0.031335
0.066859
0.052597
0.029851
0.053512
0.095932
0.125881
0.082903
0.061220
0.051636
0.126979
0.100129
0.165776
0.143770
0.152158
0.185742
0.129445
0.194104
0.239219
0.179123
0.161387
0.117948
0.138829
0.092214
0.038993
0.117728
0.031549
0.062868
0.021375
0.034639
-0.011159
-0.086594
0.106390
0.529273
1.071535
0.565212
0.202033
-0.017123
-0.047523
-0.149335
-0.106008
-0.040902
0.017665
0.043354
0.015859
-0.010952
0.029757
0.045441
0.031212
0.123598
0.048462
0.070590
0.119877
0.173468
0.077831
0.136890
0.095173
0.126767
0.072343
0.135451
0.128973
0.134363
0.150622
0.231459
0.230575
0.239861
0.263503
0.245218
0.297748
0.312421
0.358333
0.368160
0.342154
0.285059
0.278958
0.288861
0.300071
0.249574
0.182575
0.223073
0.205633
0.179289
0.167971
0.198274
0.099643
0.197687
0.143775
0.122787
0.045936
0.104165
0.081300
0.043060
0.080056
0.063897
0.028472
0.083254
0.046175
0.060096
0.020375
0.053341
0.016833
0.008544
-0.016447
0.011174
0.097825
0.012854
0.040363
0.080952
0.048678
0.008989
0.047066
0.090457
0.003948
-0.025179
0.122735
0.018044
0.096341
0.007014
0.048580
0.043113
0.048464
0.061994
0.037669
0.041255
0.085643
0.052201
-0.038756
0.075126
0.022120
0.033817
-0.004796
0.041554
0.030505
0.037605
-0.007109
0.059848
0.074653
0.038593
0.077460
0.054297
0.029811
0.017665
0.033457
0.116949
0.067902
-0.004535
-0.001291
0.078452
0.005118
-0.007048
0.040512
-0.004073
0.032315
0.069704
0.090731
0.020873
0.000187
-0.006139
-0.045680
0.081562
0.037768
0.022581
0.003189
0.063001
0.054291
0.106457
0.068109
0.066717
0.031391
0.128251
0.063099
0.137407
0.135724
0.160806
0.133876
0.149078
0.235727
0.210052
0.207344
0.048503
0.222765
0.117340
0.103285
0.123636
0.065683
0.052301
0.033637
0.067674
0.012169
-0.085911
-0.022732
0.109332
0.586449
1.028970
0.582190
0.177140
-0.027183
-0.120103
-0.059782
-0.151290
-0.049544
-0.061954
0.043927
0.045735
0.038124
0.042961
0.023011
0.004720
0.109379
0.022254
0.076557
0.082054
0.084750
0.006832
0.103898
0.049533
0.145304
0.165753
0.106220
0.133712
0.115256
0.179143
0.200958
0.173352
0.211972
0.250257
0.176243
0.269632
0.291319
0.209815
0.290920
0.271175
0.259128
0.298927
0.267234
0.244731
0.189066
0.242947
0.178232
0.229908
0.223843
0.207168
0.187039
0.215942
0.226036
0.121751
0.138793
0.095558
0.122104
0.064309
0.115877
-0.000399
0.044385
0.055060
-0.001941
0.059105
0.030362
0.014612
0.039586
0.056564
-0.078877
-0.040842
0.019503
-0.034869
0.043057
0.016645
-0.009104
0.011452
-0.018882
0.034393
0.087733
-0.005089
0.017672
0.068172
0.017725
0.028401
0.019462
0.074597
-0.021569
0.071443
0.048694
0.086189
-0.003210
-0.036060
0.014368
0.021727
0.099419
0.008970
0.027617
0.110548
0.046786
0.016313
0.032883
0.097109
0.057447
0.046924
0.008164
0.046925
0.047986
-0.014437
0.009452
0.000172
0.036483
0.037734
0.017182
-0.005019
0.048753
0.112206
0.043179
0.026643
0.023868
-0.024525
0.019129
-0.003921
-0.005831
0.040073
0.086227
0.030296
0.062293
0.089162
0.081559
0.106045
-0.014123
0.199345
0.121337
0.066646
0.152767
0.146522
0.226384
0.152259
0.169651
0.207797
0.155950
0.147745
0.060543
0.109584
0.086674
0.096671
0.090939
0.064368
0.024057
0.047427
0.022612
0.038443
-0.008634
-0.065124
0.095211
0.583688
0.995564
0.638933
0.170196
0.003466
-0.149961
-0.110863
-0.111050
-0.076802
-0.109393
0.019357
0.036655
-0.016857
-0.000322
-0.017052
0.042526
0.054261
0.034107
0.035261
0.096824
0.107318
0.024632
0.098588
0.077387
0.105544
0.123748
0.133842
0.193462
0.124334
0.139245
0.212690
0.269417
0.219323
0.327610
0.231287
0.281906
0.243145
0.218966
0.276192
0.271162
0.282849
0.258003
0.235798
0.285827
0.254870
0.266278
0.258532
0.217598
0.120869
0.110672
0.149396
0.179844
0.141728
0.130596
0.141178
0.139946
0.082588
0.093660
0.042719
0.044137
0.000093
-0.001505
0.030525
0.079425
0.098820
0.043825
0.020210
0.005353
0.023228
0.003500
0.017342
0.056724
0.016431
0.045904
0.036795
-0.015018
-0.010805
-0.001290
0.048716
0.082184
0.066017
0.021928
0.033756
0.009802
0.006348
-0.053771
-0.054030
-0.040504
0.033598
-0.003019
0.036904
-0.012637
0.037894
0.031928
-0.010124
-0.003598
0.014128
-0.009771
-0.024621
0.020060
-0.031833
0.004251
0.018205
-0.015582
0.022720
0.043080
0.083165
-0.002640
0.052860
-0.006530
-0.009910
-0.006963
0.010415
0.046978
0.084645
-0.021162
0.008880
-0.041241
0.056459
0.024038
0.050200
0.013220
0.046521
0.055820
-0.008169
-0.002996
0.057789
0.046698
0.014455
0.004851
0.092923
0.051247
0.105725
0.066872
0.109781
0.178253
0.130178
0.151437
0.151544
0.216824
0.236809
0.142037
0.147387
0.123968
0.154708
0.114301
0.062728
0.123520
0.015539
0.131202
0.055010
0.071282
0.055650
-0.007401
-0.032380
0.028951
0.579289
1.069644
0.612097
0.160464
-0.108800
-0.082016
-0.124363
-0.108024
-0.091046
-0.037410
-0.057632
-0.009464
-0.035079
0.024546
-0.000059
0.009582
0.038976
0.041628
0.027713
0.041385
0.005324
0.075665
0.050998
0.085403
0.178800
0.146342
0.087754
0.082043
0.111635
0.168106
0.199901
0.258273
0.149563
0.253580
0.204091
0.279555
0.270688
0.255138
0.257346
0.271703
0.238539
0.253643
0.261300
0.254191
0.196962
0.180399
0.228229
0.151783
0.237997
0.200334
0.062360
0.132804
0.110442
0.116390
0.098987
0.104813
0.048990
0.085111
0.047999
0.014499
0.069773
0.074673
0.021232
-0.012413
0.054952
-0.006927
0.049107
0.027828
-0.019728
-0.004095
-0.001440
-0.006888
0.035365
0.013146
-0.041266
0.034798
0.003950
0.021554
-0.003663
0.015432
0.014418
0.031328
-0.002127
0.015937
0.024398
0.029217
0.012105
-0.072411
-0.011542
-0.001862
0.030622
-0.029361
-0.015734
-0.106405
0.039905
0.045577
0.018151
0.023953
0.032973
0.016328
-0.029052
-0.030435
0.047744
0.006505
-0.036791
-0.022552
-0.005202
0.032024
0.022098
0.014616
-0.047380
0.007743
0.040353
-0.004527
-0.003777
0.082046
0.017040
0.007196
-0.022098
0.054984
-0.028475
0.059462
0.033943
-0.013954
-0.083299
0.022838
0.002913
0.031049
-0.024894
-0.042836
0.046012
0.047641
0.017882
0.076951
0.129610
0.112918
0.079986
0.100572
0.108117
0.079443
0.147732
0.155935
0.177306
0.091400
0.214998
0.189724
0.115569
0.099170
0.068641
0.075481
0.083324
0.021836
0.065530
0.069469
0.022444
0.029022
-0.052968
-0.037287
0.028784
0.488286
1.013184
0.690549
0.161352
-0.046407
-0.083075
-0.069115
-0.144189
-0.087041
-0.008846
-0.049320
-0.042917
-0.019136
0.019518
0.021845
0.061473
0.076173
0.022904
0.069759
0.021135
0.058210
0.010597
0.066727
0.042659
0.087091
0.065127
0.108832
0.136431
0.151250
0.087087
0.151234
0.118912
0.159192
0.148308
0.241098
0.230875
0.273367
0.258328
0.246874
0.204098
0.209764
0.230175
0.221710
0.246685
0.215596
0.207097
0.270841
0.150182
0.155360
0.180110
0.213571
0.149001
0.134210
0.110206
0.038152
0.034593
0.137860
0.038006
0.028315
-0.030560
0.068076
0.041588
0.014793
0.031318
-0.009825
-0.061120
0.037684
0.037811
-0.011401
-0.014795
0.010330
-0.031621
-0.051733
0.030078
0.066379
-0.022729
-0.007747
0.006882
-0.005389
0.006727
-0.011932
0.032652
0.020425
-0.007878
0.017407
0.022520
-0.001267
0.007136
0.103296
-0.014030
-0.006380
0.026849
-0.016939
-0.004577
-0.025981
0.026340
-0.016810
-0.015577
-0.044716
-0.026318
-0.045165
-0.081167
-0.032573
0.015368
-0.043338
-0.007927
-0.029936
-0.048145
0.013133
0.043005
-0.071064
-0.006053
-0.028598
-0.016572
-0.053941
0.085217
0.015581
0.013977
0.005142
0.100583
0.005997
0.078603
0.111025
0.101069
0.167980
0.146832
0.137479
0.119676
0.087902
0.132950
0.179212
0.126305
0.078419
0.032038
0.073147
0.050290
0.038451
-0.027734
0.010184
0.053229
-0.082399
-0.107585
-0.012924
0.624733
1.027614
0.507248
0.115089
-0.136792
-0.105233
-0.208094
-0.173156
-0.043733
-0.080143
-0.061522
0.023268
0.015954
0.034060
-0.002110
0.038099
0.046917
0.059108
0.027899
0.012949
0.075398
0.030891
0.078818
0.091292
0.038133
0.078105
0.025974
0.108978
0.155167
0.144233
0.153789
0.174097
0.181137
0.192787
0.211832
0.229041
0.199755
0.203534
0.190265
0.243879
0.245806
0.251489
0.278234
0.237985
0.210064
0.284847
0.099765
0.162591
0.182447
0.190869
0.142880
0.157385
0.055280
0.028936
0.077349
0.059419
0.010232
0.037852
0.016386
0.020177
0.042542
-0.022151
0.028981
0.004774
-0.059414
-0.061274
0.036690
-0.047974
-0.051510
0.003954
-0.059665
-0.077811
0.056144
-0.012386
-0.017157
0.001361
-0.056796
-0.015166
-0.009869
0.029633
-0.009286
-0.034557
-0.013175
0.019216
-0.000828
0.011943
0.016203
0.036901
-0.011246
0.015874
-0.007147
0.005335
-0.021310
-0.020769
-0.009699
-0.057428
-0.001754
-0.027442
-0.001716
-0.037267
-0.031133
0.000674
-0.040211
-0.061082
0.002773
-0.030844
-0.009966
-0.023463
-0.029257
-0.031234
-0.038745
-0.017308
-0.035866
-0.010030
-0.004913
-0.004134
0.038825
0.030141
0.019391
-0.035758
0.041817
0.005802
0.025423
-0.052429
-0.024327
-0.018601
-0.057121
-0.032502
0.028442
0.059633
0.028177
0.057570
0.050251
0.114741
0.128878
0.050459
0.059251
0.158615
0.161560
0.185404
0.097122
0.224369
0.074659
0.110045
0.138612
0.088820
0.057940
0.090924
0.084545
0.035702
-0.061232
-0.027698
-0.007471
-0.034618
-0.068736
-0.136662
-0.017902
0.539713
1.009159
0.574346
0.120830
-0.059906
-0.146222
-0.191739
-0.159316
-0.107883
-0.036932
-0.040800
0.022116
-0.051187
0.006841
-0.045654
-0.000169
-0.011373
0.045690
-0.008420
0.016639
0.031418
0.016756
-0.012085
-0.011017
0.119369
0.071418
0.113655
0.039402
0.066382
0.053860
0.138149
0.132737
0.188902
0.210582
0.186517
0.193242
0.261429
0.180439
0.277612
0.290830
0.199511
0.242070
0.223870
0.246938
0.183991
0.167758
0.206962
0.149729
0.143299
0.096139
0.141331
0.085192
0.078329
0.071315
0.113383
0.045991
0.125333
0.081441
0.042295
0.050289
0.028920
0.040333
-0.024376
-0.036121
-0.049855
-0.031680
-0.022882
-0.016510
-0.056147
-0.000851
0.056478
-0.064421
-0.086938
-0.016497
0.018363
-0.002662
-0.017283
-0.002841
-0.010440
-0.021676
-0.021530
0.004987
0.009162
-0.072040
-0.012517
0.032667
0.001658
0.024611
-0.018450
-0.041782
-0.062035
0.005604
0.034632
-0.032195
-0.032992
-0.079151
0.006785
-0.016964
0.018999
0.009065
-0.100266
0.013566
-0.091389
-0.073951
-0.070796
-0.002219
-0.049168
-0.016295
0.028866
-0.030321
0.023773
-0.017675
0.002170
-0.021522
-0.076630
-0.041495
-0.047607
-0.010959
-0.036648
-0.002151
-0.042733
-0.029359
-0.022388
0.024014
0.012682
0.038194
0.021695
0.000537
-0.005811
0.027078
0.015113
0.064077
0.061930
0.159881
0.163883
0.141230
0.108909
0.133822
0.051291
0.195812
0.205339
0.121737
0.137031
0.050455
0.037535
0.003810
0.041770
-0.007123
0.040398
-0.011982
-0.040679
-0.074632
-0.131622
-0.000082
0.539240
0.968278
0.602445
0.119075
-0.140760
-0.163655
-0.133484
-0.190950
-0.115687
-0.102325
-0.034421
-0.020791
-0.017525
-0.024235
-0.037268
-0.046757
0.004541
-0.014703
0.008212
0.009304
0.018139
0.030814
0.046264
0.070269
0.138388
0.061992
0.041930
0.111781
0.164896
0.083639
0.096566
0.163170
0.222931
0.155008
0.206580
0.202886
0.208878
0.202523
0.232249
0.174324
0.242656
0.153248
0.199673
0.193966
0.191447
0.155636
0.224345
0.180312
0.154446
0.169570
0.097212
0.092471
0.125972
0.035060
0.110910
0.072918
0.014554
0.031949
-0.007438
-0.018244
-0.012608
-0.047482
0.043851
-0.017663
0.002747
0.007725
-0.032305
-0.130062
-0.055405
-0.028095
0.001838
-0.070401
0.039702
-0.077664
-0.046722
-0.031083
-0.020790
-0.034788
-0.064168
-0.047021
-0.002333
-0.026213
0.001620
-0.034444
0.004534
0.001450
-0.057811
-0.070529
-0.004213
-0.080493
-0.036399
-0.061181
0.038010
0.041918
-0.024457
-0.072694
0.027108
-0.024922
-0.057757
-0.009031
-0.028527
-0.028131
-0.059949
-0.004662
-0.045606
-0.025420
-0.068730
-0.002280
-0.051239
0.017710
-0.014751
-0.116854
-0.001030
-0.072948
-0.008535
-0.061868
-0.079408
-0.053233
-0.034801
-0.031602
-0.030044
-0.007031
-0.069421
-0.023231
-0.008811
0.009713
-0.014578
-0.023278
-0.043597
-0.084923
0.042679
0.021241
0.067043
0.009650
0.068898
0.035716
0.073349
0.078200
0.118128
0.079176
0.144492
0.144253
0.103832
0.132442
0.137675
0.049266
0.047266
0.076083
0.035976
0.040061
-0.028016
-0.029196
-0.019803
-0.018359
-0.086052
-0.105121
-0.020344
0.501087
0.914520
0.542996
0.097610
-0.103259
-0.157253
-0.164482
-0.160243
-0.097374
-0.074829
-0.016956
-0.032364
-0.057701
0.034545
0.000064
-0.021761
0.016127
0.047483
-0.006140
-0.035881
-0.024110
0.017695
-0.011463
0.027880
0.086583
0.046104
0.052797
0.052634
0.125867
0.106729
0.168396
0.148491
0.184542
0.211733
0.190414
0.223672
0.186738
0.261214
0.161578
0.201210
0.158281
0.213379
0.152904
0.224503
0.165589
0.121373
0.139499
0.138247
0.182976
0.122051
0.136651
0.107044
0.069376
0.021551
0.067397
-0.015697
0.039849
-0.001354
0.017748
-0.063292
0.035467
-0.023319
-0.029938
-0.016862
-0.008280
0.009162
-0.068179
-0.056017
-0.065480
-0.026738
-0.045022
0.042018
-0.062450
-0.024408
-0.079724
-0.028786
-0.001264
0.019069
-0.036411
-0.008601
-0.011638
-0.038821
-0.074038
-0.053378
-0.019194
-0.018082
-0.056625
-0.058217
-0.068939
-0.039999
-0.091632
0.019298
-0.031242
-0.030912
-0.002761
-0.008245
-0.014012
-0.039801
-0.040556
-0.030606
-0.017120
-0.042155
-0.020780
-0.094815
0.001356
-0.066604
-0.013175
-0.079683
0.010886
-0.038960
-0.034765
-0.029152
-0.005815
0.014794
-0.005254
0.011848
-0.065144
-0.055141
-0.016966
-0.036614
-0.029418
-0.013484
0.005175
-0.042962
-0.023835
-0.008248
-0.036904
-0.025207
-0.012311
0.008206
-0.025045
0.014638
0.128404
0.020241
0.125387
0.073433
0.186099
0.122968
0.104763
0.108022
0.143949
0.091413
0.092157
0.066561
0.038231
0.032279
-0.005372
-0.020104
-0.011705
0.027751
-0.014713
-0.056697
-0.093162
-0.089360
0.043442
0.490834
0.921710
0.532831
0.096336
-0.111429
-0.176458
-0.167911
-0.153012
-0.057852
-0.039449
-0.041782
-0.104149
-0.149873
-0.017201
-0.006281
-0.037360
-0.035231
-0.005322
0.009568
0.005811
0.016226
0.048989
-0.008902
-0.011095
0.053438
0.045065
0.040244
0.063898
0.073296
0.047148
0.159329
0.093538
0.128150
0.189023
0.173144
0.224084
0.220793
0.224068
0.206262
0.266501
0.192624
0.236637
0.223877
0.186530
0.176459
0.155156
0.139928
0.079341
0.109875
0.121336
0.154940
0.018157
0.121342
0.084203
0.024203
0.010164
0.061448
0.007793
0.021190
-0.003190
0.013023
-0.057026
-0.025501
-0.048484
-0.050321
0.042668
-0.032027
0.005875
-0.021844
-0.050364
-0.018297
-0.054931
-0.040421
-0.006045
-0.025581
-0.056176
-0.038255
-0.055401
-0.070389
-0.058653
-0.034398
-0.126678
0.012572
-0.073251
-0.001112
-0.032930
-0.052536
-0.023001
0.009989
-0.039018
-0.042227
-0.024029
-0.026346
-0.058908
-0.046844
-0.056428
-0.089717
-0.070736
0.009634
-0.005352
-0.044702
0.002101
-0.029557
-0.026776
-0.022763
-0.039010
-0.096828
-0.056045
-0.024617
-0.064412
-0.038228
-0.025121
-0.062507
-0.058235
-0.039298
-0.050597
-0.021616
-0.024138
-0.063033
-0.031943
-0.045908
-0.050507
-0.027032
0.033297
-0.001700
0.032518
0.069267
0.023921
0.099898
0.141654
0.102284
0.084081
0.121259
0.138997
0.144169
0.034139
0.090355
0.094655
0.057902
0.050112
0.069141
-0.018350
-0.011421
-0.023263
-0.046857
-0.102787
-0.119811
-0.193306
0.021876
0.495768
0.984723
0.596817
0.042024
-0.100297
-0.273417
-0.229076
-0.197060
-0.095608
-0.152955
-0.106626
-0.047482
-0.056649
-0.065665
-0.024964
0.002011
0.008348
0.043997
0.014802
-0.022539
0.009187
-0.011259
0.059124
0.039516
0.018051
0.076487
0.057804
0.057356
0.108947
0.119948
0.116280
0.081925
0.152981
0.200981
0.094481
0.160631
0.197717
0.166204
0.178350
0.181599
0.273021
0.192663
0.164158
0.177382
0.172591
0.210275
0.116368
0.179231
0.172866
0.084666
0.083639
0.089430
0.071715
0.058101
0.019145
-0.043921
0.061977
-0.024724
-0.034113
-0.015654
0.010945
-0.034713
-0.030778
-0.020440
-0.040293
-0.132485
0.009200
-0.045636
-0.088725
-0.075827
-0.046870
-0.078706
-0.077812
-0.045022
-0.099314
-0.064719
-0.016556
-0.091835
-0.030296
-0.026085
0.022412
-0.070401
-0.028362
-0.073413
0.012286
-0.056270
-0.081263
-0.083176
-0.002151
-0.047027
-0.073457
-0.079739
-0.062426
-0.059135
-0.043459
-0.040282
-0.019238
-0.090957
0.009500
-0.011217
-0.024569
0.002268
-0.087884
-0.068065
-0.038489
-0.035659
-0.044570
-0.085399
-0.076222
-0.035072
-0.072782
-0.050447
0.029606
-0.030501
-0.033848
0.014319
-0.076740
-0.008029
0.028221
-0.038397
-0.056216
-0.042618
-0.072430
-0.088765
-0.018515
-0.009324
0.016397
-0.061622
0.021489
0.078874
0.055495
0.069798
0.124946
0.098671
0.102256
0.016523
0.208740
0.075753
0.067353
0.102815
0.081893
0.064759
0.004739
0.046322
-0.002470
-0.005724
-0.000436
0.042748
-0.060868
0.027640
-0.091422
-0.170897
0.035380
0.567347
0.975205
0.508086
0.082575
-0.156251
-0.169360
-0.164920
-0.132830
-0.155817
-0.044259
-0.046481
0.000293
-0.046633
-0.041001
-0.061227
-0.049422
-0.033504
-0.028515
-0.032222
-0.007012
0.042833
0.086888
-0.012358
-0.047638
0.021163
0.079905
0.063489
0.072168
0.109355
0.076363
0.107693
0.122875
0.200772
0.144732
0.145707
0.162289
0.192344
0.200541
0.166375
0.191472
0.142958
0.200569
0.173545
0.251992
0.205169
0.149163
0.161703
0.140683
0.090610
0.104684
0.115861
0.133781
0.086928
0.073713
0.001486
0.018308
0.034473
-0.014150
0.074972
-0.001737
-0.037841
-0.033907
-0.019879
0.012135
-0.054928
-0.074245
-0.065709
-0.006785
-0.070169
0.006409
-0.112118
-0.062271
-0.084840
-0.043675
-0.027153
-0.070050
-0.085320
-0.037050
0.007683
-0.074021
-0.082186
-0.060466
-0.018931
-0.074101
-0.068732
0.011529
-0.061997
-0.061697
0.023333
0.005199
-0.082352
-0.035870
-0.055276
-0.104407
-0.120331
-0.041517
-0.054055
-0.065420
-0.027165
-0.065089
-0.085145
-0.023910
-0.079639
-0.044903
-0.060181
-0.051143
-0.014278
-0.081537
-0.078336
-0.076654
-0.032985
-0.068975
0.001624
-0.064998
-0.004353
0.023902
-0.113381
0.000647
-0.098321
-0.048963
-0.087278
-0.008116
0.002952
-0.052532
0.034600
0.026652
0.046171
0.025078
0.050672
0.059170
0.081663
0.103613
0.078825
0.081890
0.104625
0.027289
0.108446
0.093547
0.037111
-0.001637
0.011058
0.008998
0.006006
-0.054127
-0.095672
0.002728
-0.051929
-0.061977
-0.077498
-0.135278
0.008246
0.520852
0.927578
0.511869
0.109802
-0.161207
-0.188336
-0.213514
-0.231765
-0.086599
-0.106251
-0.043023
-0.062325
-0.149751
-0.058851
-0.009794
-0.028296
-0.051598
-0.026970
-0.034611
-0.094734
0.016702
0.025579
0.039571
-0.025605
-0.031752
0.068904
0.124538
0.055091
0.110985
0.087697
0.121158
0.155249
0.199661
0.102588
0.171643
0.167020
0.245208
0.201730
0.168373
0.179072
0.208604
0.146875
0.161452
0.118748
0.165723
0.198479
0.167449
0.184905
0.188023
0.086354
0.071033
0.035871
0.072396
-0.033598
-0.017413
0.004924
0.040087
-0.008981
-0.005409
-0.033260
-0.022764
-0.050119
0.003175
-0.026284
0.012032
0.005250
-0.052177
-0.047553
-0.087136
-0.041693
-0.081772
0.014772
-0.037817
-0.090192
-0.064454
-0.060596
-0.061343
-0.071320
-0.038881
-0.075752
-0.061250
-0.065615
-0.057875
-0.065537
-0.041139
-0.072928
-0.084436
-0.084747
-0.028560
-0.138717
-0.047731
0.031839
-0.015394
-0.099909
-0.069844
-0.051780
-0.035676
-0.093594
-0.066390
-0.029460
-0.017556
-0.043995
-0.043296
-0.087762
-0.038250
-0.034259
-0.026304
-0.029332
-0.103661
-0.034533
-0.042854
-0.073806
-0.108249
-0.115791
-0.037192
0.018781
-0.065312
-0.044855
-0.068601
-0.044163
-0.050097
-0.054683
0.005333
-0.043879
-0.012709
-0.091754
-0.008498
-0.074968
0.033636
-0.082266
-0.024355
-0.070485
0.017835
0.082348
0.089867
0.123859
0.053512
0.054511
0.060991
0.028996
0.116445
0.027270
0.041097
0.065260
0.079688
0.053268
0.016879
0.059433
0.013773
0.005535
0.001555
0.047529
-0.005188
-0.065545
-0.103419
-0.182498
0.008465
0.531161
0.931934
0.558490
0.084443
-0.059003
-0.220257
-0.190292
-0.181046
-0.198133
-0.067457
-0.013172
-0.103797
-0.103876
-0.021576
-0.074506
0.001861
-0.020844
-0.106607
-0.039352
-0.032847
0.041685
0.089188
-0.026186
-0.000852
0.078378
-0.003386
0.021320
0.081643
0.072581
0.109947
0.137799
0.113480
0.134125
0.129294
0.202074
0.168751
0.194514
0.159441
0.194719
0.261093
0.175047
0.193459
0.203807
0.211152
0.178679
0.139983
0.194377
0.142979
0.134454
0.102035
0.140321
0.000430
0.050100
0.109903
0.037864
0.006443
0.062082
-0.071597
0.023417
-0.031021
-0.003138
-0.026252
-0.011635
0.001670
-0.044972
-0.094708
-0.049332
-0.086758
-0.077616
-0.001627
-0.118630
-0.147009
-0.049944
-0.049319
-0.055166
-0.012818
-0.044097
-0.113380
-0.012010
-0.061842
-0.074914
-0.052000
-0.033617
0.018563
-0.036137
-0.059565
-0.021370
-0.073232
-0.063683
-0.117753
-0.052512
-0.006488
-0.063063
-0.049081
-0.040726
-0.023592
-0.067441
-0.095753
-0.086631
-0.054192
-0.021811
-0.055512
-0.112543
-0.053049
-0.038750
-0.120231
-0.060672
-0.111014
-0.076322
0.006332
-0.062088
0.002319
-0.041251
-0.126551
-0.095013
0.023042
-0.052670
-0.079880
-0.042704
-0.038629
-0.096405
-0.080906
-0.034360
-0.067080
-0.078592
-0.083150
-0.066584
-0.066203
0.039318
-0.023706
0.032505
-0.031024
0.043771
-0.009379
0.015502
0.011024
0.049715
0.117064
0.119043
0.121866
0.111057
0.099499
0.127543
0.078589
0.132354
0.050751
0.026540
0.046707
0.022117
0.021258
0.042807
-0.041853
-0.052847
-0.093553
-0.111495
-0.238748
-0.004065
0.465404
0.956404
0.535830
0.039611
-0.123503
-0.182313
-0.193119
-0.203098
-0.152341
-0.071653
-0.125402
-0.030229
-0.083700
-0.088042
-0.077075
-0.004117
-0.085783
-0.065610
-0.008144
-0.079533
-0.024641
0.038768
0.029411
0.013251
0.043654
0.111614
0.041463
0.037857
0.108740
0.083818
0.148002
0.085142
0.097442
0.168378
0.178428
0.197091
0.208157
0.168579
0.136858
0.192905
0.210033
0.212743
0.245565
0.246916
0.092502
0.176522
0.148687
0.130733
0.094288
0.071026
0.029800
0.095416
0.062609
0.052930
0.060999
-0.018771
0.022866
-0.100476
-0.035161
-0.029144
-0.018972
-0.039318
0.000748
-0.091096
-0.058179
-0.078037
-0.092818
-0.107659
-0.056041
-0.089230
-0.076270
-0.043346
-0.112935
-0.056608
-0.075830
0.021399
-0.021321
-0.042798
-0.061779
-0.066467
-0.114924
-0.038669
-0.034583
-0.006221
-0.102885
-0.068850
-0.079288
-0.019399
-0.042655
-0.042509
-0.078916
-0.111201
-0.021281
-0.031343
-0.045353
-0.033870
-0.000961
-0.054925
-0.034436
-0.039581
-0.044822
-0.050789
-0.072114
-0.060820
-0.096144
-0.112536
-0.020754
-0.085824
-0.027862
-0.042498
-0.058625
-0.092849
0.009906
-0.098397
-0.062213
0.009904
-0.039039
-0.083752
0.002340
-0.077664
-0.014580
-0.017921
-0.037355
-0.005134
-0.024937
-0.018798
0.004409
-0.046933
-0.029081
0.006132
0.031524
0.009683
0.063132
0.053631
0.101333
0.109211
0.088156
0.111844
0.127585
0.096970
0.124799
0.059067
0.076165
0.006443
0.001747
0.018768
0.046762
0.033136
0.015853
0.036208
-0.006834
-0.134845
-0.209573
-0.019593
0.471253
0.967428
0.558829
0.189818
-0.095740
-0.223645
-0.218600
-0.182868
-0.144740
-0.087871
-0.091273
-0.071038
-0.013740
-0.084118
-0.094432
-0.027409
-0.036268
-0.063101
0.019595
-0.008278
-0.012064
0.019987
-0.018629
0.045411
0.021514
0.006973
0.001478
0.084584
0.094285
0.113072
0.117655
0.129749
0.180542
0.200218
0.171477
0.194746
0.193438
0.196400
0.226090
0.163038
0.146377
0.189694
0.167964
0.218053
0.143110
0.166822
0.082287
0.146654
0.138401
0.084246
0.125153
0.022236
0.109819
0.094420
0.059775
0.013556
-0.002438
0.038404
-0.017161
-0.043650
0.024215
-0.021992
-0.052085
-0.052344
-0.030719
0.003232
-0.069249
-0.011159
-0.063176
-0.091186
-0.050986
-0.019129
-0.083747
-0.006387
-0.087275
-0.043880
-0.064869
-0.088603
-0.026950
-0.096014
-0.070662
-0.091284
-0.038712
0.030176
-0.030216
-0.036091
-0.021410
-0.050983
-0.064235
-0.064058
-0.044639
0.013777
-0.042820
-0.099271
-0.043387
-0.081929
-0.083187
0.005068
0.018003
-0.071671
-0.070599
-0.073127
-0.006394
-0.049745
-0.063185
0.014046
-0.096038
-0.100707
-0.020084
-0.093819
-0.026789
0.010258
-0.049404
-0.059193
-0.003911
-0.026976
-0.097103
-0.003059
-0.076527
-0.119328
-0.013901
0.002141
-0.013120
-0.020408
0.022187
-0.004697
-0.045112
-0.017772
0.017351
0.013988
0.118885
0.140042
0.110373
0.141964
0.114847
0.160668
0.109307
0.088939
0.040763
0.105508
0.059042
0.034091
-0.032744
-0.017487
-0.008698
0.032123
0.003885
-0.047344
-0.041662
-0.091783
-0.093943
-0.031760
0.519903
0.900005
0.584245
0.075880
-0.105359
-0.097261
-0.143766
-0.187672
-0.113383
-0.123260
-0.030002
-0.073765
0.002673
-0.057104
-0.040642
0.050369
0.005790
-0.003151
0.021614
0.019379
-0.035099
0.006877
0.004799
0.019206
0.040807
0.049265
0.073648
0.040096
0.081411
0.064437
0.100407
0.195595
0.166148
0.136664
0.202437
0.211072
0.161122
0.184457
0.190493
0.146927
0.165746
0.187473
0.234905
0.102654
0.263109
0.134402
0.195115
0.153562
0.145152
0.114826
0.128515
0.074698
0.050798
0.110345
0.085204
0.047330
-0.012682
0.072012
-0.003166
-0.014317
-0.019603
-0.014871
-0.005406
0.033034
-0.024390
-0.049349
-0.098286
-0.053678
-0.039545
-0.001931
0.035786
-0.054990
-0.028995
-0.031036
-0.011825
-0.078911
0.001226
-0.043690
-0.038228
-0.006527
0.017232
-0.029772
-0.003677
-0.051832
-0.046745
-0.088265
-0.054410
-0.037753
-0.001917
-0.007350
-0.016723
-0.012950
-0.039999
-0.005234
-0.039908
-0.020242
-0.084871
-0.004739
-0.023136
-0.024926
-0.039962
-0.017599
-0.010961
-0.041788
-0.027558
-0.014702
-0.058956
-0.094331
-0.005706
-0.066239
-0.054064
-0.031689
0.008445
-0.097913
-0.073332
-0.016579
0.016054
-0.028193
-0.080016
-0.032723
0.001563
-0.030420
-0.029498
0.013795
0.066921
0.095922
0.101263
0.076275
0.072342
0.093203
0.081847
0.139648
0.075892
0.077608
0.131516
0.114631
0.030049
0.037743
0.076737
0.046676
0.050305
-0.005763
0.018268
-0.029204
0.002376
-0.051969
-0.077286
-0.182488
0.024603
0.493288
0.872563
0.526085
0.152871
-0.012145
-0.167883
-0.180705
-0.175037
-0.118633
-0.011562
-0.061419
0.035817
-0.041074
0.008312
-0.044538
-0.009638
-0.005672
-0.035276
-0.056623
-0.034941
0.030104
0.001036
0.014727
-0.003764
0.054270
0.060918
0.028999
0.063198
0.118109
0.028228
0.109872
0.130025
0.201847
0.147841
0.205213
0.169162
0.188909
0.191022
0.194789
0.184111
0.195844
0.266999
0.203508
0.219159
0.203804
0.126015
0.139429
0.177616
0.140307
0.138441
0.135275
0.067231
0.088774
0.028835
0.027811
0.023960
0.042232
0.020461
0.025077
-0.036128
-0.010057
-0.046473
-0.024387
-0.073711
-0.003323
-0.040323
-0.060114
-0.000592
-0.017035
0.017798
-0.024503
-0.004012
-0.066804
-0.054617
-0.092214
-0.099596
-0.041444
-0.009305
0.047945
0.061036
-0.024794
-0.060922
-0.035023
-0.088080
-0.027954
-0.026446
-0.037837
0.001377
-0.071526
-0.021357
-0.039660
-0.031235
0.002802
-0.070623
-0.072738
-0.017245
-0.015521
-0.039656
0.004728
-0.012361
-0.078009
-0.048637
-0.017948
-0.085622
-0.060001
-0.048852
0.038955
0.041856
0.001846
-0.071503
0.028638
-0.045362
-0.011048
-0.064322
-0.001729
-0.067488
-0.075770
-0.077628
-0.045775
0.005783
-0.083175
-0.015190
-0.055616
-0.031096
-0.021837
-0.053780
-0.035384
-0.069772
-0.056988
0.040568
-0.041518
0.025883
0.031714
0.040287
-0.012588
0.036752
0.088423
0.075443
0.023762
0.131331
0.048049
0.125489
0.113003
0.097763
0.182770
0.084658
0.120020
0.059039
0.041271
-0.018691
-0.005127
-0.027807
-0.014591
-0.010023
-0.000984
-0.020516
-0.082222
-0.073399
-0.022411
0.563303
0.985666
0.605024
0.092400
-0.101024
-0.114488
-0.146642
-0.188011
-0.137665
-0.085899
-0.060679
0.016252
0.019891
0.007294
0.027572
0.073944
-0.041692
0.042961
-0.008799
0.014326
0.031430
-0.030339
0.048809
0.037721
0.005673
0.035471
0.076572
0.110503
0.128346
0.110635
0.133485
0.147151
0.191770
0.180414
0.128332
0.214783
0.207532
0.207417
0.220390
0.165325
0.148650
0.213285
0.156147
0.226633
0.181853
0.202031
0.137421
0.229504
0.147042
0.079911
0.125667
0.064221
0.015380
0.101575
0.052305
0.106187
0.061295
0.011789
0.042279
-0.012097
0.016321
-0.021873
0.021538
0.005780
0.009753
-0.037151
-0.023131
-0.022054
-0.047624
-0.031339
-0.021974
0.016174
-0.013597
-0.031340
0.029795
0.001271
-0.014296
-0.061645
-0.023310
0.009409
-0.080135
-0.076636
-0.030652
-0.064125
-0.009393
0.039740
-0.104496
-0.012073
-0.026865
0.008089
0.014861
-0.090879
-0.038473
-0.017385
-0.034079
-0.020097
-0.026819
0.006514
-0.043671
-0.010258
0.041554
0.036661
-0.054350
-0.031887
-0.040229
0.041560
-0.053467
-0.016693
0.017816
-0.072920
-0.018918
-0.025788
-0.020391
0.014325
-0.081191
-0.039470
-0.065658
-0.019299
0.000041
-0.039503
-0.031847
0.002737
0.043064
0.084286
0.061317
0.082902
0.104337
0.023418
0.074736
0.107641
0.179953
0.148719
0.098895
0.124144
0.122836
0.099659
0.092249
0.010714
0.112609
0.065682
0.053432
0.049154
0.090264
-0.051710
-0.045891
-0.093675
-0.132831
0.082095
0.511934
0.954005
0.646654
0.078109
-0.080183
-0.110139
-0.120693
-0.138848
-0.122787
-0.055350
-0.030819
-0.025069
-0.031450
0.041427
-0.032541
-0.009001
-0.008392
-0.014703
0.012871
0.059025
0.041380
0.056861
0.024224
0.004147
0.127997
0.035771
0.027853
0.138026
0.146605
0.118658
0.194329
0.116691
0.135670
0.191217
0.184603
0.211171
0.208878
0.259826
0.222717
0.241941
0.274277
0.284756
0.217400
0.171758
0.217219
0.236460
0.210263
0.152728
0.210260
0.133036
0.134656
0.165668
0.050694
-0.012448
0.034818
0.063217
0.044309
0.018368
0.040758
0.052344
-0.073650
0.003396
-0.025994
0.014169
0.030060
-0.045993
-0.007112
-0.087370
0.024232
-0.053810
-0.038108
-0.020773
-0.013678
0.009332
-0.062115
-0.009772
-0.019009
-0.020226
-0.024121
-0.025451
0.008066
-0.006187
-0.038920
-0.025282
0.004939
-0.018239
-0.031876
-0.074310
-0.065009
-0.027465
-0.015486
-0.001850
-0.009730
0.012569
0.001894
-0.068404
-0.070519
-0.033227
-0.019537
-0.020656
-0.008493
-0.051520
0.042587
0.001590
-0.017757
0.040870
0.013043
-0.020149
0.009277
0.022149
-0.037799
-0.078905
0.000808
0.001552
0.001428
-0.031216
-0.055583
0.078850
-0.003573
0.059236
0.016114
-0.044290
-0.039967
-0.067318
-0.006362
0.049724
0.018532
-0.067214
-0.028993
0.043942
-0.022302
-0.004730
0.022743
0.003368
0.017241
0.014629
-0.006274
0.053433
0.054572
0.067450
0.048056
0.156055
0.107214
0.147484
0.136891
0.075157
0.175656
0.086134
0.173755
0.129329
0.080158
0.114662
0.113876
-0.016691
0.112564
0.048650
0.036670
-0.019350
0.033009
-0.034505
-0.081103
-0.117924
0.036421
0.519254
1.004423
0.597120
0.129683
-0.122244
-0.106791
-0.063982
-0.137897
-0.149151
-0.034801
0.002490
-0.004540
-0.017392
-0.027489
-0.035103
-0.022025
-0.070297
0.081361
0.035302
0.007105
0.008480
0.064354
0.017702
0.035605
0.063112
0.106005
0.078880
0.100823
0.133116
0.116957
0.126921
0.117101
0.197164
0.119466
0.254529
0.179773
0.256217
0.244073
0.226311
0.196846
0.236994
0.218963
0.242887
0.148625
0.187027
0.198247
0.179249
0.216331
0.168207
0.140388
0.111942
0.134651
0.174675
0.134743
0.128233
0.009792
0.081971
0.076595
0.028954
-0.006733
0.032195
0.018690
-0.024785
0.013013
-0.005385
-0.041846
-0.004983
-0.033726
-0.056242
0.006033
-0.049143
-0.006549
-0.039987
-0.011698
-0.004173
-0.017748
-0.046062
-0.073069
-0.008377
-0.015799
-0.033665
-0.038311
0.008232
0.029874
0.022550
0.024245
-0.020566
-0.063516
-0.006585
-0.020690
0.024278
0.027393
-0.071280
0.017825
0.046624
-0.017540
-0.028786
0.010423
0.032478
-0.025172
-0.023563
-0.025319
-0.001048
0.019454
0.021787
-0.050229
0.016304
-0.013436
-0.015631
-0.010528
0.077324
-0.051516
0.022230
0.058590
0.015580
0.049835
-0.010682
-0.035054
-0.015161
-0.046609
0.009427
0.029699
0.043352
-0.013046
0.032382
0.001561
-0.015096
-0.010610
0.028809
0.062540
0.015149
0.046017
0.044685
0.093130
0.086133
0.088038
0.104644
0.141729
0.133482
0.147479
0.161805
0.139566
0.106780
0.074954
0.113741
0.088446
0.077847
0.126564
0.067174
0.045518
0.053370
-0.022316
0.006220
-0.062803
-0.073237
0.062197
0.521543
1.025545
0.620843
0.112555
-0.097843
-0.107566
-0.157377
-0.195826
-0.093087
-0.074536
-0.031933
0.067125
-0.026214
-0.024265
-0.018476
0.016037
-0.023204
0.020521
0.058645
-0.008924
0.055208
0.079981
0.002330
0.060129
0.108599
0.029144
0.136506
0.134374
0.079801
0.199167
0.152939
0.214601
0.195252
0.292477
0.251497
0.224151
0.205136
0.234345
0.257032
0.292638
0.267367
0.243608
0.257613
0.258930
0.212509
0.187349
0.184597
0.139973
0.209431
0.138102
0.209678
0.157751
0.045775
0.073872
0.098937
-0.016796
0.045633
0.020480
0.018916
0.010842
0.026149
-0.012397
-0.021914
0.011610
0.032835
0.035957
-0.045430
0.040650
-0.010508
0.019822
0.001864
-0.022429
0.034976
0.032166
-0.039761
0.074223
-0.006093
0.011074
-0.005084
0.019393
0.023670
0.002749
0.001703
-0.014326
-0.016484
0.016331
0.017317
-0.020250
0.035690
-0.040176
0.042300
0.003847
0.026453
-0.027564
0.010679
0.004950
-0.018450
-0.016123
0.009383
0.000190
-0.032660
0.041042
-0.007149
-0.002149
0.027198
0.031021
0.016808
-0.010731
0.012128
-0.014999
-0.059547
-0.041060
0.034167
-0.015406
0.030562
-0.001552
-0.002476
-0.000509
0.007654
-0.010422
0.043475
0.064040
-0.083001
0.037050
-0.008896
0.008894
-0.002917
0.034598
0.031332
0.000455
0.177566
0.096168
0.106727
0.133119
0.111124
0.123844
0.200613
0.139182
0.134606
0.151728
0.113635
0.107550
0.170094
0.006195
0.068871
0.090338
0.053764
0.022197
0.100369
0.011971
-0.029375
-0.063408
-0.015395
0.011512
0.578866
0.997262
0.564066
0.100718
-0.078423
-0.146373
-0.073138
-0.127661
-0.069984
-0.028255
-0.011089
0.019441
0.073323
0.060680
-0.076016
0.050324
0.001719
0.020417
0.108104
0.044472
0.079535
0.059769
0.065160
0.084153
0.041633
0.066357
0.100436
0.160637
0.188090
0.120887
0.193969
0.152028
0.252111
0.226181
0.235538
0.241635
0.277803
0.194139
0.241013
0.204386
0.290485
0.252374
0.239353
0.260559
0.221118
0.199145
0.237039
0.135819
0.200062
0.134257
0.201645
0.150676
0.153531
0.140444
0.101563
0.141185
0.048361
0.001739
0.102927
0.044736
0.074107
0.036620
0.045635
-0.013882
0.041987
0.006987
0.017310
0.024770
0.022737
-0.011264
0.015900
0.021282
0.011989
-0.013876
0.088624
0.018624
-0.008590
0.078553
0.015527
-0.037270
-0.042554
0.053771
-0.008387
-0.053277
0.018732
0.020744
0.006654
0.013803
0.018900
0.043714
0.028551
0.052472
-0.033286
-0.010334
0.006066
0.023872
-0.035166
-0.051817
0.022553
0.005536
-0.021348
0.022347
0.027798
0.054169
-0.039314
-0.014393
0.061967
0.007782
0.019754
0.001268
-0.048699
-0.049366
0.039091
0.019544
0.039379
-0.014638
0.003903
-0.020534
0.072817
0.004855
0.021021
-0.040768
0.023313
0.028111
0.057944
0.036502
0.058450
0.088498
0.029182
0.096858
0.033094
0.087498
0.190899
0.110315
0.160275
0.178559
0.137391
0.166039
0.182355
0.172264
0.152855
0.179334
0.088876
0.091990
0.028718
0.063223
0.031958
0.032882
0.006764
0.010284
-0.030938
-0.062006
0.026702
0.586847
1.062594
0.545286
0.121330
-0.052797
-0.082302
-0.105180
-0.042396
-0.063603
-0.044256
-0.062787
0.027802
0.001795
0.092667
0.080758
0.049784
0.045526
-0.019990
0.022244
0.045863
0.051965
0.098748
-0.000790
0.097267
0.099175
0.091073
0.107587
0.199019
0.079238
0.166849
0.147341
0.190855
0.265729
0.253701
0.252929
0.214396
0.297139
0.298387
0.244028
0.213555
0.293227
0.256964
0.300019
0.267007
0.255552
0.224952
0.209225
0.211600
0.202942
0.174608
0.184094
0.122479
0.166895
0.090641
0.091710
0.114874
0.065431
0.064721
0.086027
0.052061
0.059653
0.017014
0.099835
0.025520
0.046736
0.011991
-0.013555
0.024061
0.039677
0.005248
0.037704
0.032067
0.011678
0.050370
-0.046638
0.029560
0.011080
0.047382
0.031839
-0.011244
0.023418
-0.005587
0.045361
0.008767
0.026096
0.031956
0.005148
0.004954
-0.000295
0.072853
0.005378
0.027343
0.065805
0.011160
0.015984
0.064956
0.047339
0.063575
-0.008149
-0.059073
0.054448
0.043054
0.046280
0.045328
0.024255
-0.018943
-0.030752
-0.009753
0.071082
0.006052
0.003818
-0.017226
0.057466
0.009242
0.009375
0.001120
0.019615
0.020044
0.007964
0.055685
0.038067
0.052997
0.028693
-0.000801
-0.019564
0.032643
0.023144
0.015931
-0.002361
0.002246
0.011094
0.057121
0.006153
0.087512
0.071207
0.124825
0.097563
0.140933
0.176552
0.138483
0.165216
0.226931
0.177958
0.232112
0.074078
0.143899
0.055665
0.102056
0.111131
0.062491
0.051941
0.067743
0.153776
0.064239
0.020607
0.005196
0.061368
-0.033419
0.107923
0.532691
0.954721
0.581632
0.181052
-0.028445
-0.129147
-0.113038
-0.163206
-0.121528
-0.066189
0.032379
0.006436
0.004561
-0.031812
-0.004577
0.057795
0.066009
0.022443
0.038554
0.091402
0.129339
0.034573
0.109743
0.029168
0.057901
0.165839
0.089257
0.142634
0.150329
0.149285
0.186058
0.207489
0.233107
0.181174
0.284800
0.255736
0.255860
0.247986
0.292985
0.258613
0.253131
0.271371
0.274073
0.167051
0.241604
0.271727
0.203070
0.206174
0.174415
0.112133
0.273857
0.148636
0.162887
0.188506
0.103812
0.075253
0.082239
0.112432
0.095599
0.090345
0.044078
-0.019462
0.068348
0.009613
-0.013901
0.037512
-0.013405
0.021296
0.066945
-0.005050
0.010089
-0.026857
0.044658
0.019525
0.009048
-0.008781
0.068646
0.022474
0.037830
0.056464
0.079390
0.016625
0.074518
0.029278
0.006925
0.042644
0.019636
0.038759
0.079311
0.092651
0.059907
0.018357
0.017562
0.034905
0.080914
0.041522
0.048066
0.064042
0.012519
0.027252
0.053019
0.046506
-0.005367
-0.024986
0.023470
0.052152
0.043063
0.020507
0.043773
0.008548
0.062037
0.051742
0.064548
0.090646
0.015387
0.055680
0.020360
0.063953
0.019192
0.094067
0.101496
0.034978
0.026716
0.123019
0.048723
0.048520
0.080690
0.040238
0.123643
0.132370
0.117365
0.154938
0.167661
0.177818
0.150277
0.180812
0.175263
0.109483
0.151553
0.114778
0.158438
0.117201
0.051170
0.047140
0.019702
0.063217
0.034457
0.023205
0.012876
-0.058945
0.094694
0.615856
1.076145
0.645806
0.159729
-0.025691
-0.084781
-0.087431
-0.135453
-0.036552
-0.071364
-0.010808
0.046115
0.047201
0.045245
0.056797
0.067431
0.067284
0.095885
0.096084
0.042003
0.148086
0.050822
0.077556
0.107033
0.093197
0.132154
0.124480
0.169300
0.199262
0.123570
0.151392
0.235210
0.227616
0.221685
0.236564
0.246915
0.280540
0.288552
0.282542
0.306160
0.319339
0.262170
0.256495
0.291477
0.251170
0.216386
0.259071
0.179927
0.235160
0.154515
0.199829
0.126826
0.175945
0.098060
0.120791
0.046430
0.040152
0.113406
0.074753
0.092529
0.068931
0.033059
0.025756
0.094502
0.042155
0.076541
0.050253
0.032751
0.018500
0.056373
0.036498
0.013143
0.071808
0.037086
0.062168
0.025196
-0.006759
0.063265
0.073957
0.048736
0.068055
-0.029023
0.047595
0.028129
0.094535
-0.000223
0.060852
0.041453
-0.003279
0.027875
0.078036
-0.013530
-0.032214
0.051718
0.096985
0.040816
0.014622
0.020057
0.003589
0.022108
0.044137
0.055021
0.043429
0.056850
0.004257
0.010318
0.029405
0.066192
0.022057
0.069293
0.041285
-0.029222
0.059286
-0.024494
0.074995
0.096979
0.054446
0.049696
0.022444
-0.015576
0.047148
0.068737
0.059265
0.066139
0.082240
0.058573
0.070247
0.068829
0.067641
0.032947
0.042285
0.035701
0.062370
0.018984
0.031041
0.080481
0.095872
0.107341
0.109258
0.170065
0.202777
0.174643
0.144055
0.211445
0.136366
0.186292
0.127039
0.150424
0.157066
0.071323
0.130810
0.151650
0.097124
0.117436
0.069038
0.064622
0.074346
0.055586
-0.000026
-0.023586
0.048238
0.595309
1.013889
0.599921
0.182610
-0.025101
-0.075092
-0.132690
-0.119422
-0.029283
-0.005159
-0.011688
0.027430
0.077299
0.076050
-0.050992
0.002977
0.002577
0.007956
0.046342
0.063710
0.087651
0.051708
0.119991
0.095127
0.147526
0.111313
0.152241
0.207661
0.143428
0.146177
0.168275
0.209702
0.265795
0.284067
0.207558
0.262021
0.323068
0.319279
0.287743
0.278079
0.291149
0.300174
0.322900
0.270419
0.327417
0.309908
0.234922
0.233413
0.258850
0.149897
0.173012
0.205544
0.180128
0.130339
0.092638
0.065375
0.114449
0.124396
0.079719
0.063590
0.067827
0.033105
0.028904
0.039443
0.034027
0.058233
0.087676
0.022578
0.003967
0.026830
-0.001617
0.043754
0.047066
-0.002069
0.028163
0.047028
0.070214
0.054413
-0.015618
-0.027584
0.001514
-0.003201
-0.047500
0.065293
0.067949
0.049377
0.141155
0.038820
0.015622
0.034813
0.106809
0.008820
0.061762
0.023516
0.053548
0.000556
-0.004316
0.002814
0.015097
-0.001221
0.041832
0.051935
0.066000
0.031713
0.068722
0.056536
0.079835
0.077503
0.000984
0.017325
0.043224
-0.019343
-0.022688
0.054843
0.067219
0.067191
0.045873
0.025566
0.058006
0.073014
0.013557
0.065842
0.073185
0.035524
0.017546
0.100358
0.080555
0.031168
0.085268
0.143148
0.132824
0.166019
0.130159
0.192215
0.153654
0.234357
0.201072
0.172167
0.216723
0.139529
0.163237
0.189377
0.233127
0.155802
0.083523
0.063021
0.088361
0.132358
0.064057
0.099641
0.058726
0.086690
-0.016092
-0.043673
0.033119
0.573361
1.096044
0.653469
0.157691
-0.019582
-0.019423
-0.075202
-0.134648
-0.072651
-0.017454
-0.072077
0.024157
0.019764
0.040278
0.049503
0.061350
0.050586
0.129888
0.105269
0.051347
0.058910
0.119960
0.079037
0.010825
0.134665
0.144523
0.171819
0.172411
0.193961
0.207482
0.206215
0.211237
0.191547
0.251410
0.249867
0.327847
0.251187
0.283847
0.290835
0.271389
0.329750
0.353741
0.307118
0.282014
0.221223
0.283148
0.224041
0.239626
0.234935
0.227408
0.166693
0.145964
0.131476
0.190666
0.157114
0.115736
0.111746
0.136475
0.048859
0.095266
0.126584
0.094158
0.029227
0.025802
0.038663
0.081711
0.100554
0.089803
-0.000693
-0.014060
0.060875
0.050337
0.044829
0.056204
0.024917
0.114161
0.074473
0.085014
0.040177
0.046973
0.061333
0.072471
0.052962
0.074862
0.102732
0.071238
0.099449
0.011074
0.094293
0.063473
-0.001279
0.044294
0.063929
0.089759
0.015821
0.041051
0.094762
0.016517
0.036115
0.017425
-0.006630
-0.017479
0.155120
0.126739
0.018879
0.110568
0.080415
0.070311
0.055031
-0.036618
0.023030
-0.025766
-0.015504
0.116506
0.065504
0.078715
0.086717
0.123504
0.069241
0.086589
0.023113
0.035210
-0.002623
0.119456
0.080708
0.096080
0.085772
0.015408
0.045930
0.145722
0.105139
0.153076
0.202540
0.135543
0.188738
0.173628
0.185138
0.194104
0.216851
0.220444
0.157741
0.212247
0.181113
0.137777
0.136096
0.114823
0.087662
0.016136
0.045458
0.064972
0.080901
0.022411
-0.088013
0.056638
0.624308
1.065692
0.665968
0.188055
0.040989
-0.093459
-0.028473
-0.099719
-0.141662
0.021415
0.029464
0.056706
0.071606
0.024299
0.006567
0.037048
0.117389
0.065006
0.122830
0.075423
0.078283
0.078073
0.131009
0.052164
0.216624
0.176336
0.212952
0.168859
0.248126
0.177878
0.183783
0.232838
0.287754
0.231625
0.268168
0.279727
0.283239
0.316661
0.290295
0.262449
0.305505
0.269861
0.295711
0.251165
0.263342
0.239606
0.240746
0.250463
0.313557
0.278875
0.229695
0.166822
0.161583
0.178065
0.197880
0.135789
0.118623
0.121130
0.048544
0.114489
0.055372
0.098740
0.084489
0.080341
0.040766
0.045825
0.012240
0.010948
0.069740
0.006693
0.040453
0.034556
0.054407
0.048418
0.051843
0.040856
0.025777
0.034376
0.052478
-0.007879
0.041216
0.054620
-0.005307
0.083053
0.091098
0.035471
0.038795
0.013735
0.095433
0.063413
0.050185
0.033030
0.013895
0.032352
0.019507
0.023130
0.071442
0.021892
0.062334
0.024124
0.013040
0.032351
0.013852
0.089343
0.074379
-0.001516
0.027835
0.015184
-0.007998
0.055802
0.014553
0.059987
0.077058
0.009831
-0.008791
0.058328
0.040446
0.019626
0.049424
0.063185
0.012805
0.055989
0.081185
0.078170
0.056538
0.028279
-0.005922
-0.003142
0.002004
0.034903
0.049433
0.093545
0.095019
0.087211
0.103358
0.123528
0.226342
0.200097
0.180147
0.193439
0.179137
0.153886
0.174649
0.225639
0.177373
0.177144
0.155382
0.144400
0.183962
0.032016
0.058696
0.114700
0.053158
0.075929
0.030997
-0.050697
0.009811
0.069097
0.564328
1.047630
0.663545
0.176645
0.036515
-0.075018
-0.133207
-0.067711
-0.063726
0.026246
0.064482
0.053734
0.030401
0.047087
0.128320
0.052727
0.055790
0.055011
0.130148
0.051415
0.052745
0.039854
0.065806
0.093542
0.178544
0.181035
0.154839
0.089265
0.158252
0.147354
0.241786
0.263078
0.169455
0.269109
0.228911
0.248977
0.238761
0.328024
0.274649
0.232423
0.292334
0.331995
0.313855
0.253825
0.231600
0.245413
0.268126
0.213950
0.211932
0.265133
0.208147
0.164015
0.189462
0.154384
0.081434
0.144518
0.113874
0.126776
0.103917
0.038487
0.039097
0.079445
0.064197
0.043999
0.081340
0.037919
0.009839
0.085039
0.071621
0.030381
0.081318
0.080672
0.068031
0.055873
0.024287
0.062577
0.096988
0.108310
0.015283
0.009290
0.095076
0.063751
0.050585
0.014436
0.102947
0.040683
0.082600
0.076485
0.023869
0.047189
0.044053
0.028133
0.080781
0.098039
0.099115
0.095652
0.000856
0.031966
0.030398
0.118035
0.071915
0.067475
0.094908
0.119305
0.037577
0.058253
0.015401
0.008373
0.055770
0.060573
0.035086
0.041643
0.096411
-0.016617
0.066974
0.063340
-0.020528
0.103856
0.016106
0.013623
0.098785
0.121144
0.056290
0.072262
0.036570
0.080118
-0.028826
0.068583
0.094256
0.060436
0.094769
0.112195
0.113132
0.145178
0.080322
0.162979
0.179945
0.166606
0.169079
0.167962
0.182876
0.182222
0.182898
0.164313
0.172055
0.064779
0.128964
0.052539
0.074902
0.092606
0.075746
0.062882
0.051730
0.017416
-0.034395
-0.017382
0.033239
0.627756
1.046209
0.599128
0.139922
0.009205
-0.080985
-0.132589
-0.087850
-0.035682
0.060598
0.071058
0.060161
0.062206
0.067258
0.073383
0.056485
0.046235
0.074085
0.112371
0.081194
0.086256
0.081554
0.006141
0.115221
0.128909
0.239850
0.133984
0.165150
0.230023
0.186891
0.248490
0.281902
0.247771
0.271479
0.258895
0.314449
0.260947
0.308245
0.272786
0.371451
0.324931
0.300628
0.291166
0.233646
0.281189
0.242133
0.226837
0.240304
0.207087
0.264414
0.170272
0.147636
0.133854
0.163029
0.144927
0.144643
0.104569
0.146132
0.112172
0.076031
0.047733
0.122734
0.068999
0.102082
0.049345
0.086045
0.077251
-0.013059
0.015230
0.028279
0.015910
0.042622
0.031548
0.047973
0.030962
0.065273
0.051958
0.034010
0.065341
0.044616
0.091425
-0.001186
0.005653
-0.020102
0.122572
0.042220
0.095429
0.020033
0.025358
0.068744
0.078282
0.102599
0.052174
0.095194
0.039446
0.077456
0.063273
0.092781
0.053949
0.055814
0.065665
0.005365
0.098879
0.041574
-0.026222
0.066252
0.008794
0.062916
0.013184
0.071930
0.071651
0.088823
0.001389
0.035270
0.082645
0.113849
0.064417
0.117114
0.144404
0.098874
0.153511
0.137266
0.183235
0.202584
0.106397
0.252759
0.225506
0.215102
0.196302
0.101067
0.046151
0.085474
0.072769
0.130587
0.081556
0.068971
0.038379
0.034179
-0.035481
-0.032881
0.083793
0.637977
1.019357
0.647944
0.241267
-0.043005
-0.059026
-0.148468
-0.068633
-0.116191
0.003797
0.041653
0.110955
0.022362
0.057294
0.033385
0.072129
0.042923
0.049313
0.082730
0.027970
0.114013
0.083214
0.106431
0.141383
0.184579
0.142483
0.090491
0.184466
0.190570
0.232021
0.159414
0.168651
0.250797
0.232116
0.238595
0.281712
0.236185
0.322507
0.307428
0.266314
0.339510
0.254385
0.223251
0.252454
0.307944
0.290789
0.258531
0.247948
0.176014
0.261034
0.172500
0.158185
0.190823
0.117255
0.133858
0.121119
0.054446
0.080004
0.045108
0.066573
0.001221
0.115481
0.075878
0.051446
0.111720
0.000390
0.006349
-0.010206
0.147518
0.037402
0.042587
0.031446
0.065575
0.046847
0.083723
0.030812
0.040791
0.070545
0.041633
0.081895
0.140786
0.051280
0.107419
0.058496
0.080475
0.100361
-0.018225
0.099898
0.040472
0.086242
0.060338
-0.002302
0.019786
0.027849
0.016853
0.062165
0.005993
0.033919
-0.010198
0.081048
0.042351
0.009582
0.063957
0.039983
0.062617
0.083851
0.054158
0.023599
0.048250
0.089364
0.045729
0.000571
0.060528
-0.003728
0.036390
-0.031116
0.092558
0.075943
0.080829
0.044468
0.015668
0.007541
0.081477
0.089280
0.073380
0.029632
0.029982
0.056468
0.048314
0.045172
0.054125
0.072687
0.044421
0.060736
0.109652
0.184934
0.120268
0.139502
0.160322
0.216557
0.244242
0.147269
0.137219
0.137890
0.124257
0.209186
0.105804
0.185119
0.083617
0.181592
0.100066
0.120450
0.075489
0.026200
-0.000780
-0.010420
0.109081
0.638386
0.980931
0.681023
0.181056
0.021734
-0.054028
-0.131452
-0.074177
0.027131
-0.024901
0.097421
-0.026538
-0.008504
-0.000004
-0.004441
0.108984
0.040979
0.023115
0.032681
0.061016
0.127278
0.082558
0.034642
0.117503
0.068410
0.173085
0.178103
0.135848
0.195738
0.215393
0.201371
0.203302
0.169154
0.157080
0.275227
0.323353
0.287668
0.310401
0.293270
0.288963
0.345811
0.299840
0.308095
0.249936
0.263165
0.268577
0.205587
0.252408
0.246462
0.195619
0.196393
0.182966
0.208800
0.123415
0.106555
0.113456
0.092678
0.026315
0.068816
0.044836
0.032474
0.113079
0.053408
0.017793
0.100775
0.072229
0.079227
0.025593
0.090677
0.078962
0.044896
-0.049225
0.042003
0.014115
0.079016
-0.049076
0.065054
0.042636
0.055723
0.036856
0.041699
0.053692
0.012849
0.045017
0.060710
0.023212
-0.001513
0.054869
0.031320
0.037888
0.079394
0.061880
0.015432
0.050912
0.042427
0.062057
-0.028109
0.000252
0.019395
0.058829
0.039030
0.048448
0.075173
0.036966
0.022736
0.043166
0.027495
0.037427
0.087995
-0.002470
0.052665
-0.000291
0.035547
0.015244
0.035951
0.009027
0.037168
0.008781
0.034107
0.060421
-0.009176
0.087665
0.053976
-0.001401
0.127242
0.062947
0.082393
0.130761
0.068355
0.109995
0.135136
0.161835
0.187007
0.136448
0.155315
0.175945
0.142061
0.157110
0.188441
0.202824
0.169383
0.143588
0.134301
0.097057
0.113156
0.048148
0.021312
0.030516
0.024592
0.012894
-0.003399
-0.052218
0.075892
0.590094
1.060938
0.569000
0.235988
-0.012341
-0.030885
-0.135595
-0.107226
-0.012848
0.039404
0.056334
0.004603
0.025921
0.064798
0.050068
0.065402
0.113125
0.042765
0.043892
0.137721
0.039328
0.065971
0.054092
0.085403
0.061512
0.097410
0.108376
0.164564
0.178888
0.162451
0.178412
0.211565
0.223992
0.282008
0.250992
0.239713
0.294437
0.294886
0.307161
0.315014
0.318833
0.270794
0.267617
0.268233
0.268895
0.203496
0.273011
0.268562
0.151556
0.212682
0.180407
0.142516
0.200423
0.112089
0.136669
0.115964
0.160897
0.061716
0.124244
0.074202
0.148925
0.066623
0.043294
0.086672
0.101913
0.029156
0.077489
0.077427
0.043209
0.056077
0.074481
-0.003821
0.042020
0.062011
0.003958
0.023392
0.033244
-0.024733
0.044709
0.004218
0.088460
0.034305
-0.002227
0.092946
0.074427
0.051025
0.049103
0.077019
0.010712
0.058469
0.049389
0.032911
-0.003889
0.069007
0.026034
0.028503
0.062379
0.001236
0.001691
0.055653
0.052000
0.018579
0.042890
0.037728
0.014294
0.038887
0.040545
0.013328
0.049656
0.065254
0.008603
-0.025252
0.039995
0.075305
0.077217
-0.038917
0.067919
0.032064
0.056180
0.074310
0.077023
0.056915
0.079692
0.128102
0.104772
0.138923
0.105362
0.165492
0.182544
0.152880
0.175186
0.186416
0.153146
0.139241
0.157992
0.145632
0.158307
0.095639
0.124636
0.085487
-0.010751
0.030946
0.039979
0.015998
-0.040026
-0.046837
0.092974
0.600576
1.060522
0.628732
0.189922
-0.025605
-0.107310
-0.123401
-0.102018
-0.033205
0.007429
-0.014471
0.094446
-0.000556
0.049218
0.021066
-0.022596
0.043250
0.045090
-0.000233
0.047331
0.086684
-0.014913
0.098271
0.083947
0.135324
0.150007
0.117817
0.162374
0.145206
0.213123
0.199187
0.291004
0.204767
0.188522
0.231284
0.312902
0.263193
0.285661
0.285869
0.258337
0.267654
0.274631
0.306701
0.331842
0.272771
0.216538
0.229916
0.223248
0.247806
0.237661
0.184612
0.175385
0.185754
0.135668
0.089508
0.127960
0.097440
0.059557
0.048225
0.059480
0.119997
-0.021553
0.038491
0.104147
0.019027
0.027705
0.062949
-0.006143
0.016166
0.017798
0.076665
-0.007407
0.071437
-0.049681
0.018728
0.116799
0.028142
0.026825
0.049045
0.101339
0.006816
0.044546
0.022234
0.024896
0.113322
0.013228
0.070679
0.027470
0.019282
-0.026943
-0.020672
0.072104
0.028631
0.057427
0.047103
-0.017449
-0.007862
-0.001418
0.042012
0.116221
0.015821
0.016786
0.011820
0.004094
0.043963
0.019130
0.077859
0.055837
0.036611
0.031477
0.056089
0.024936
0.036363
0.012715
0.066100
0.003818
-0.023692
0.003282
0.038301
0.060861
0.108409
0.018059
0.110342
0.045704
0.159136
0.040325
0.164637
0.180936
0.131360
0.071911
0.191739
0.119666
0.169915
0.230432
0.180611
0.131596
0.060157
0.132298
0.168940
0.170084
0.081983
0.016122
0.006532
0.041231
0.013478
0.027571
-0.066965
-0.046629
0.117623
0.624004
0.980226
0.667731
0.146042
-0.091007
-0.122390
-0.084517
-0.126682
-0.061335
-0.050092
0.029442
0.060419
0.015720
0.039619
0.066238
0.046595
0.080940
0.007493
0.013286
0.047911
0.066962
0.032953
0.025756
0.070240
0.132922
0.143950
0.063297
0.118096
0.185311
0.156001
0.184589
0.205535
0.180466
0.220773
0.269040
0.229978
0.244337
0.315502
0.282997
0.291142
0.315083
0.248160
0.265642
0.263813
0.249021
0.224472
0.203058
0.247264
0.213759
0.135345
0.158268
0.127744
0.097277
0.082905
0.070366
0.100224
0.063231
0.053306
0.073591
0.073211
0.085449
0.012857
0.051706
0.050434
0.010494
0.049879
-0.003134
-0.016820
-0.027836
0.031827
0.063337
0.015957
0.003495
0.033742
-0.055983
0.022883
0.041503
-0.016249
-0.009354
0.017209
-0.000888
-0.009033
-0.001097
0.020654
-0.017437
0.039459
0.021549
0.018625
0.009315
0.027957
-0.035950
0.081815
0.029935
0.051445
0.012514
0.042992
0.023889
0.047574
0.006200
-0.017407
-0.021048
0.018864
-0.038095
0.068309
0.028081
0.027437
-0.025847
-0.004433
-0.029231
0.082846
0.030283
0.009146
0.002398
0.042563
0.061641
0.011717
0.060678
-0.036396
-0.001181
0.016310
0.033304
0.078940
0.031015
0.023785
0.064292
0.096149
0.179078
0.098650
0.031059
0.123807
0.125369
0.119746
0.203992
0.232367
0.184076
0.106640
0.107314
0.168836
0.084703
0.151124
0.119264
0.057689
0.022915
0.110902
0.021241
0.023904
-0.001406
-0.056243
-0.076475
0.128044
0.538407
1.023762
0.619438
0.123039
-0.087834
-0.108587
-0.177426
-0.128287
-0.049006
-0.019568
0.000204
0.054115
0.033398
0.002364
-0.019958
0.070227
0.041934
0.018459
0.121572
0.048517
0.076835
0.063317
0.035542
0.111162
0.100988
0.041935
0.140107
0.163129
0.169573
0.123602
0.193265
0.206864
0.271836
0.161867
0.196027
0.185505
0.276817
0.212806
0.243377
0.246142
0.318288
0.253157
0.300173
0.244979
0.238658
0.240867
0.194724
0.212495
0.132589
0.258135
0.176603
0.154678
0.114526
0.145521
0.167737
0.085934
0.102157
0.055719
0.051173
0.064347
0.070891
0.053292
0.040261
0.036523
0.058372
0.021840
-0.042760
-0.077178
0.080021
0.015099
0.059748
0.003746
0.002310
0.010961
0.026875
0.012967
0.052116
0.019412
-0.012114
0.025563
0.011505
0.031273
-0.028594
-0.006338
-0.032617
-0.010662
0.040589
-0.016793
0.047043
0.036863
0.018543
-0.038406
0.057368
-0.040077
-0.010098
0.031420
-0.039963
-0.024593
0.031351
0.005737
-0.000593
0.020133
-0.045566
0.004918
0.053092
0.060913
0.072352
0.086322
0.009985
0.023748
0.067540
-0.024711
0.030544
0.043060
0.026045
0.047531
-0.002546
-0.042853
0.002888
0.076757
-0.027357
0.029859
-0.042219
0.033006
0.016665
-0.021428
-0.028456
0.112628
0.059806
0.070298
0.096849
0.165949
0.121692
0.162360
0.157560
0.135510
0.188307
0.165981
0.130810
0.192631
0.074519
0.110319
0.140667
0.044958
0.130841
0.088293
0.085879
-0.038117
0.023082
-0.065952
-0.029911
-0.081178
0.038384
0.568644
1.028855
0.554944
0.116159
-0.087617
-0.102159
-0.131887
-0.096929
-0.005796
0.011142
0.062975
-0.005625
0.037073
-0.009776
-0.001054
0.034458
0.032213
0.035904
0.026275
0.040741
0.068839
0.035820
0.108159
0.120469
0.042889
0.102747
0.097544
0.078283
0.124740
0.162935
0.169142
0.208122
0.262089
0.239789
0.197165
0.233465
0.214999
0.228729
0.263393
0.294928
0.230850
0.160916
0.183116
0.205801
0.272494
0.189863
0.171009
0.169055
0.161384
0.134311
0.135411
0.192147
0.078942
0.077167
0.106422
0.134993
0.077703
0.037992
0.090500
0.030522
0.036817
0.021911
0.001408
-0.021063
-0.032155
0.004270
0.051777
-0.077421
-0.060843
-0.012578
0.005888
-0.020272
0.011730
0.065032
-0.005553
-0.023448
-0.007672
0.043419
-0.013035
0.003105
-0.064614
-0.051836
0.015579
0.007365
-0.051391
-0.054010
0.031200
0.039408
-0.009892
-0.022169
-0.026233
0.029287
0.056104
-0.009264
-0.020466
-0.056667
-0.000261
-0.019595
0.028907
0.012470
0.055702
0.019568
0.046427
0.076157
-0.038191
0.026753
-0.020725
-0.012197
-0.022774
0.033602
0.026037
-0.049680
-0.022005
0.003475
-0.003237
0.004860
0.026783
0.014401
0.015277
0.044576
0.007443
-0.003538
0.010945
0.015226
-0.035064
0.000616
-0.000782
0.027317
-0.017908
0.057143
0.004183
-0.016396
-0.046115
0.008256
0.063296
-0.076714
0.037317
0.039362
-0.038496
0.025632
-0.030527
0.007277
-0.007156
